2372.70929587182	-1860.18571709999
2371.93352070856	-1849.14808019999
2372.13891883095	-1841.81576039999
2372.00580568232	-1829.64171539999
2371.57857634405	-1815.38281769998
2372.04938206354	-1803.48197909999
2371.31188948050	-1788.91344449999
2371.62989277531	-1776.02209859999
2371.54867403361	-1766.76066089999
2371.29049718979	-1755.95863769999
2371.84875979491	-1741.64985479999
2371.28074993112	-1734.35378670000
2371.75140876886	-1721.31032669999
2371.89897995863	-1705.38765029998
2371.73644196238	-1689.23311499999
2372.42894517655	-1673.54663340000
2371.89499381232	-1649.20167239999
2372.49289495574	-1634.34884579999
2372.84237739342	-1615.95421470000
2372.91898410955	-1594.39848899999
2373.76536647249	-1571.36520479999
2373.58441532159	-1556.10122759999
2374.37702103312	-1539.22313339999
2374.78370080043	-1522.66388429999
2374.89780966429	-1506.50188409999
2376.02323676132	-1480.62228269999
2377.46369703678	-1449.69515729999
2383.43934963518	-1407.41794200000
2394.30527173476	-1362.24582059999
2410.24676316423	-1312.26371099999
2431.59426151264	-1265.06542799999
2454.01189033407	-1214.76080789999
2477.50759665926	-1166.05108379998
2500.35028998845	-1118.84676629999
2523.31022823924	-1073.81227619999
2548.84502013072	-1025.63488439999
2576.17950810111	-977.604957899987
2608.56274758860	-934.304604299983
2644.54718625206	-889.727529299984
2682.46008609650	-846.791078399981
2722.55034485449	-801.475112399983
2762.58645752283	-755.126978699984
2805.92597002178	-710.861015699984
2852.07161479222	-667.713089099983
2900.60527405988	-619.189898099985
2951.92229506359	-573.645515099983
3003.43712642755	-530.606522399980
3057.02426175863	-488.669697599984
3111.76775820315	-446.837649599978
3168.38225698240	-411.628711199973
3228.29498980403	-370.819086299978
3303.38608701874	-330.376180199981
3380.34425691492	-293.490723599980
3459.39815036882	-256.961257799978
3540.25861410348	-213.670693499980
3621.12241969908	-175.181981999983
3704.00558137948	-143.755870499976
3787.21860362199	-110.400194099982
3872.32450017448	-85.7897597999764
3960.75203554986	-56.5038395999764
4051.28976920133	-49.4327912999724
4143.34543619768	-47.8900154999702
4229.91476282930	-52.2755771999691
4304.04662259587	-50.5468493999687
4354.98451783034	-54.2500655999701
4369.59230139086	-59.2720211999714
4362.35504315754	-61.4885153999713
4354.80209973706	-64.3769846999749
4346.73576694611	-72.1869239999724
4338.88939608571	-73.5306059999730
4329.92531004364	-75.4557455999748
4321.55574701212	-82.0612433999741
4311.93897975282	-86.5143467999733
4302.45059832445	-90.7525772999706
4293.20445051774	-98.9751869999691
4282.94510456811	-101.873803199971
4273.70709632216	-105.295632899972
4263.55775527347	-115.809519899971
4253.60317403237	-121.028155499971
4244.02962230110	-126.323272799971
4233.43225691824	-134.345805299978
4223.91300483100	-140.749169699975
4213.39012646795	-144.185839799971
4203.17404094437	-155.320118099965
4193.43131425143	-162.269090699972
4182.65554826033	-167.022488699971
4173.12361121794	-178.015470299973
4162.59857196596	-189.744839699973
4152.34904080998	-197.454159299975
4142.64636755476	-204.762609299980
4131.97267156091	-208.797767699976
4122.49765308755	-212.149865399977
4112.20627553289	-222.263150999985
4102.18626833700	-234.016703099986
4092.64289055404	-239.150810999984
4082.08514339493	-248.164431899985
4072.80358828719	-261.177451199983
4062.61771091709	-267.254192699980
4052.66749792131	-278.290309799982
4043.15274577525	-290.122355099982
4032.65438304842	-296.806390799986
4023.40492230878	-305.536300799984
4013.24494633497	-321.418210799982
4003.35002513370	-330.470586599984
3993.93073587301	-338.482122899983
3983.60055215543	-350.016242699983
3974.41159627794	-359.228823299978
3964.42912581143	-365.184159599981
3954.64706975980	-377.138816999981
3945.39704734371	-388.132469099979
3935.23983545842	-394.343891699982
3926.19675997402	-404.496200399990
3916.30838834591	-411.044973899985
3906.62644587567	-415.662796799987
3897.55314079858	-425.541183899982
3887.52673606224	-435.210553799983
3878.74089029519	-440.101314899985
3869.11876843462	-448.422935099990
3859.74871116322	-455.400292199988
3850.95736289427	-459.444658799991
3841.22048490158	-468.742839899989
3832.64688343077	-477.498139499991
3823.23108086562	-480.006703499986
3814.08975285068	-496.564388099988
3805.39490306063	-513.959393099991
3795.86261546741	-520.560912599986
3787.50196150509	-529.792892999992
3778.26277327269	-541.363979699990
3769.13055323908	-547.972114799983
3760.65977861973	-556.362751799992
3751.12623349653	-567.010962299985
3742.71858507763	-572.143460999993
3733.57715749859	-584.350852199990
3724.52694110662	-600.531268799988
3714.95135506816	-607.589488199990
3705.87963565220	-613.593770999989
3696.36377506634	-623.304041399984
3687.85537013819	-629.097965999996
3678.14028022120	-632.298530699994
3669.25333916206	-641.273575499994
3660.33791618294	-648.017464499997
3650.80257307892	-650.733928199991
3642.42110592920	-658.083680999991
3632.87465027964	-664.435863899993
3624.14370946268	-665.983601399994
3615.25911810764	-673.605174899994
3605.89797033262	-681.509833500000
3597.54435698375	-686.547165899993
3588.15604181011	-694.443420899995
3579.47791089031	-702.009611099995
3570.72373726626	-704.559969599990
3561.43301584839	-709.448808599996
3553.28397242940	-707.885694299998
3544.04639515412	-693.468245700001
3535.57803385787	-668.944529399999
3527.04877397138	-642.206956199998
3518.02207102442	-627.039486300000
3509.95623145074	-615.478904100001
3500.79412004313	-597.776899499997
3492.43226659406	-603.115465199996
3484.16528317319	-697.306902899998
3475.25545534731	-843.370947299997
3467.42188631957	-912.317523599999
3458.43712597969	-894.281699399995
3450.22695676458	-897.688778100003
3441.94907284623	-911.805350999996
3433.27957451522	-879.725993699989
3425.62526082953	-851.275963499991
3416.76726490948	-825.134554199995
3408.90565892164	-814.609536899991
3401.02092603628	-814.013283599992
3392.45609678841	-806.624284199992
3385.07621837803	-803.673592499998
3376.59621241642	-813.133274699998
3368.94594514427	-823.705584599999
3361.23727687881	-831.787255199994
3353.15079407042	-845.923227899995
3346.12732047584	-861.038577599993
3338.15348631181	-866.697955199990
3330.99882884903	-875.361396299995
3323.94185856074	-884.136185099998
3316.41989442229	-886.740094199994
3309.95821004526	-890.990170199990
3302.44335206156	-898.935952799995
3295.85068092529	-900.448868999990
3289.43490282554	-903.062701499990
3282.44524130531	-911.061542999994
3276.66153053938	-914.409662399998
3269.74607093016	-919.955323199992
3263.58119101160	-928.475411399990
3257.60037163932	-928.446535199997
3250.98529072004	-933.790822499992
3245.45649192727	-946.862532899990
3238.91989901162	-953.776415999990
3233.07055694832	-958.340375399992
3227.29017999229	-963.748583699996
3220.93825793033	-967.033407899995
3215.67912691277	-970.949038499995
3209.31517926970	-978.187041299998
3203.77974112676	-981.991726499994
3198.25200485599	-984.742653899994
3192.06046436205	-990.921490199995
3187.00406374755	-995.932851899995
3180.96263724560	-998.927885999995
3175.50952584286	-1005.90984720000
3170.27670103547	-1009.11054599999
3164.43536675275	-1007.18209860001
3159.71283789876	-1012.66191630001
3154.02655494745	-1016.84811600000
3148.93491905996	-1014.28765530000
3144.07492310813	-1013.99004269999
3138.60566936910	-1017.70657949999
3134.25287016891	-1016.59144860000
3128.82285625157	-1020.08117760000
3123.99951904648	-1026.03401070000
3119.33216260496	-1025.00993370000
3114.18886474583	-1025.76902910000
3110.19190213162	-1031.44516920000
3105.50595177138	-1031.25282509999
3100.46784559880	-1030.45390199999
3096.28787337230	-1033.90134479999
3091.06223371361	-1033.41666269999
3086.73442415089	-1033.13581260000
3082.28728006418	-1039.46555609999
3077.41127341813	-1040.62730910000
3073.51532879983	-1035.54246059999
3068.43548738220	-1036.45939170000
3064.39212885022	-1038.22437119999
3060.17751309504	-1039.02405420000
3055.49748962448	-1042.35272910000
3051.78119772296	-1044.88887299999
3046.99370844116	-1044.97273020000
3043.04327831149	-1051.18133669999
3038.93051624222	-1054.90422090000
3034.33753262751	-1058.81301240000
3030.76693500317	-1069.40186129999
3026.02573654361	-1079.13439230000
3022.16443207819	-1087.57764120000
3018.24605590694	-1099.99168050000
3013.87948633373	-1112.71955850000
3010.40061231475	-1120.56704580000
3005.88707144900	-1132.99293060000
3002.23907762065	-1146.51517230000
2998.45439016138	-1154.67015089999
2994.17003306137	-1163.89681199999
2991.00101213125	-1176.82803029999
2986.61587164417	-1182.50814869999
2983.11477244057	-1191.16926539998
2979.56137993615	-1202.73623969999
2975.58123246313	-1205.14431809998
2972.46606750742	-1207.26376859998
2968.50778942643	-1215.94196069999
2965.38262250784	-1219.69363169998
2962.21378570082	-1221.73946129998
2958.64064009658	-1228.29364349998
2956.12163834731	-1228.85967959998
2952.46591589489	-1229.18809049998
2949.68205243855	-1237.24660649998
2946.80787084736	-1241.56409009997
2943.41634857535	-1238.69207039998
2941.11974363888	-1243.93064219998
2937.67668871259	-1253.26878509998
2935.05764976883	-1257.73695239997
2932.31867967018	-1262.22027299998
2929.14439434787	-1266.02540519997
2926.99864621148	-1265.25455369998
2923.80374484428	-1269.88811099998
2921.40252396327	-1274.61880139998
2918.92669987084	-1274.77046849998
2915.92993312534	-1276.69055699999
2913.93078850636	-1278.31750289998
2910.87091379174	-1278.58078589998
2908.47573558410	-1283.23128449998
2906.10679039772	-1287.85143179998
2903.21606643752	-1286.60144099999
2901.39188855511	-1289.03455139999
2898.50433506976	-1293.18905879999
2896.34346203209	-1291.84157729998
2894.08758405323	-1291.47114839999
2891.33146442806	-1295.46384179999
2889.56676264495	-1292.81496449999
2886.75899120187	-1292.06619479998
2884.72487371894	-1296.42989819999
2882.70450073517	-1297.15394879999
2880.11372053156	-1295.86256579997
2878.56106353254	-1301.30461199999
2875.77199022504	-1303.53938849998
2873.74086574256	-1302.94885679998
2871.59107979202	-1310.86156139998
2868.92331467585	-1312.21083089999
2867.24986935405	-1309.54666619998
2864.54161278965	-1315.08843809998
2862.48445784477	-1321.65652199999
2860.57644500271	-1323.21020459998
2858.07159026944	-1323.28690979998
2856.67039741573	-1321.98788309999
2854.14857040066	-1320.88660919999
2852.30231167868	-1323.40174409999
2850.69204842610	-1327.17205499999
2848.45958409202	-1326.91140930000
2847.26942094137	-1328.69337480000
2845.65737129382	-1334.18579789999
2842.76897923167	-1334.17609799999
2840.33514864314	-1336.18943069999
2836.67958132797	-1341.77170079999
2833.61961591723	-1342.29281339999
2829.98527618690	-1344.97749539999
2825.95112529058	-1351.53918719999
2822.74813201195	-1352.15041499999
2818.45271001294	-1354.55120729999
2815.01690986174	-1360.50323579999
2811.38008873529	-1361.52954779999
2807.41145895574	-1365.14582249999
2804.36804229874	-1372.20882479999
2800.23528679630	-1372.49284859999
2796.99575094112	-1374.79337879999
2793.57012082897	-1381.88293289999
2789.76161461104	-1384.78557210000
2787.05541693195	-1385.25644189999
2783.34082251578	-1391.05175220000
2780.52128647844	-1393.46474759999
2777.53436864438	-1392.53261849999
2774.35743790315	-1395.52117110000
2772.17900062227	-1399.05729870000
2768.87544997041	-1401.75132300000
2766.57402997777	-1408.70396100000
2763.82259700503	-1412.90772780000
2760.69375738865	-1411.80350370000
2758.44362690878	-1416.38413619999
2755.16419166128	-1421.24910540000
2752.83362489249	-1420.35327270000
2750.18627656917	-1420.68329280000
2747.07453957813	-1425.00010590001
2744.86710670872	-1425.19008090000
2741.48410638382	-1424.62762080000
2738.86277457762	-1429.49057849999
2735.93034532089	-1427.45377829999
2732.66795320579	-1428.26217780000
2730.24554177295	-1431.87617280000
2726.59860453415	-1430.81025660000
2723.80212309882	-1429.37976720000
2720.71188485377	-1433.10314310000
2717.10566767407	-1432.87593300000
2714.51378588532	-1430.68035840000
2710.76191746114	-1433.86787070000
2707.89791866790	-1432.12434720000
2704.86003874295	-1428.70126590000
2701.44015860243	-1434.24817830000
2699.10042222892	-1436.37835680000
2695.73422039238	-1433.97179819999
2693.20698576052	-1435.60616429999
2690.58901468624	-1437.59745989999
2687.60775712807	-1439.86692360000
2685.62095069464	-1443.14115389999
2682.50441438886	-1444.75598610000
2680.41355863444	-1445.38223310000
2678.09120129941	-1451.83449929999
2675.43095283218	-1453.28581889999
2673.80465705174	-1449.19103070000
2670.98700693824	-1449.78451259999
2669.00010128235	-1451.94298619999
2666.82631246265	-1449.55721310000
2664.25396979923	-1452.71790540000
2662.51514822928	-1458.92074560000
2659.68164742527	-1457.15205600000
2657.63121120953	-1458.22052010000
2655.33443673651	-1464.87635009999
2652.46088558176	-1466.15311620000
2650.52636171928	-1464.73040459999
2647.55884096196	-1469.80573199999
2645.27558886791	-1469.52926249999
2642.85406402407	-1468.68809790000
2639.99603469699	-1474.10886690000
2638.12663235019	-1476.54939749999
2635.03694990131	-1475.50408799999
2632.87901352318	-1479.58582379999
2630.61181044251	-1486.12074029999
2627.90343639871	-1487.65189410000
2626.24027081831	-1494.91591229999
2623.50236794673	-1497.63644369999
2621.58476887955	-1495.83472079999
2619.62168853779	-1498.00986749999
2617.03283051054	-1501.58555459999
2615.48854413844	-1502.87698229999
2613.70913757111	-1505.00161799999
2611.95355010617	-1505.27410919999
2610.79915016906	-1505.65687530000
2608.61206109375	-1510.37777639999
2607.65757204175	-1514.85166529999
2606.02957187427	-1509.99688769999
2604.32347315675	-1515.01580369999
2603.35318915857	-1521.59148659999
2601.50739032151	-1521.22423140000
2600.77967295763	-1525.15827840000
2599.20657021799	-1528.77491070000
2597.75747560572	-1526.97291959999
2596.98314949135	-1529.75571809999
2595.07352766536	-1537.47934170000
2594.38527465859	-1536.55145909999
2593.14043159677	-1535.75213369998
2591.99088109433	-1540.75263329999
2591.44539226032	-1542.14628989999
2589.81485206893	-1540.15526249999
2589.40244236684	-1544.72047349999
2588.23379930198	-1544.60224200000
2587.16249925368	-1538.90053350000
2586.72156064745	-1535.88806639999
2585.22315289095	-1532.17827929999
2584.90083750683	-1527.54172710000
2584.00640708349	-1528.65144930000
2583.01036733086	-1529.73859799999
2582.72418716377	-1524.93075539999
2581.40638632642	-1525.10088360000
2581.24083319356	-1528.68023609999
2580.52685465999	-1527.37597950000
2579.67491293833	-1527.09611280000
2579.50217870303	-1529.55179669999
2578.42609692631	-1531.99988159999
2578.44808293110	-1536.58610159999
2577.79086069533	-1540.84493880000
2577.02504920147	-1541.35992749999
2576.91653020658	-1543.75392539999
2575.77782110575	-1552.26958829999
2575.64005916560	-1551.92812500000
2574.96899002417	-1550.52239940000
2574.26499977358	-1553.70289380000
2574.14330623983	-1556.56642049999
2573.06800337744	-1563.32246790000
2573.05224479163	-1571.78408849999
2572.43155245044	-1571.59362180000
2571.65731942703	-1570.79170380000
2571.66202217091	-1577.98590059999
2570.61209111653	-1579.01623560000
2570.49397373611	-1580.77299030000
2569.88001502113	-1586.17324200000
2569.18102471444	-1588.39326750000
2569.14212830103	-1585.20892890000
2568.03771007478	-1591.67473920000
2568.06890184776	-1594.62239130000
2567.53832136851	-1593.14706780000
2566.90087503330	-1596.62177759999
2566.98744541643	-1602.09198480000
2565.99578433904	-1600.91110020000
2566.09581363729	-1605.49097280000
2565.64282717503	-1609.55822580000
2565.01015180574	-1604.86222260000
2565.13247145597	-1600.53401100000
2564.19490587392	-1591.27905480000
2564.27176892814	-1565.03635529999
2563.68485043327	-1530.34213740000
2562.93319565893	-1515.52770810000
2562.92851453738	-1503.54569430000
2561.85582252230	-1479.21025440000
2561.72779657020	-1476.11075640001
2561.11056765367	-1540.46708969999
2560.31982694794	-1661.92588500000
2560.36062002299	-1741.78677089999
2559.28329124006	-1736.66884440000
2559.37076056571	-1718.78549190000
2559.03566093463	-1741.40592689999
2558.42636594956	-1726.19179019999
2558.83031789640	-1690.50925529999
2558.15046158514	-1663.73748660000
2558.54736915257	-1640.74081169998
2558.48846191609	-1627.55547389998
2558.23801533072	-1618.71001439999
2558.67743935520	-1611.19201079999
2557.97632743574	-1609.33289309999
2557.37970925777	-1612.69893719999
2557.74124383497	-1617.13764719999
2557.64518536058	-1616.55516149998
2557.20817246903	-1621.78573199999
2557.63296408101	-1626.01037369999
2556.88730325559	-1619.85572009999
2557.19795141888	-1619.82814019999
2556.97511962009	-1621.18728840000
2556.44002717118	-1616.84419170000
2556.74750601102	-1616.08263780000
2555.93778825960	-1618.65248550000
2556.10676780519	-1614.05522459999
2555.92240698904	-1613.17749539999
2555.37176676325	-1617.50450010000
2555.62962059990	-1616.38172549999
2554.76270594072	-1616.67504690000
2554.99368970662	-1619.90462190000
2554.81662545437	-1616.82827850000
2554.27920783226	-1614.51630510000
2554.54402915531	-1619.31364319999
2553.66306388615	-1621.96600709999
2553.70263674624	-1618.03196009999
2553.34294525453	-1613.99487959999
2552.68455300569	-1609.90974660000
2552.83839124394	-1608.44416770000
2551.75459188976	-1610.34052050000
2551.53155938027	-1608.98919480000
2550.96904527443	-1606.66050359999
2550.00685200645	-1607.68891649999
2549.92327916254	-1607.02270770000
2548.81260195888	-1603.15951020000
2548.53272790395	-1603.94126850000
2547.89732200841	-1602.15706800001
2547.01107492227	-1597.57545210000
2546.99966132093	-1599.23851559999
2545.99468308601	-1601.83607730000
2545.95741774373	-1598.82182219999
2545.45384081159	-1597.73436059999
2544.74482732989	-1598.05530660000
2544.79928034820	-1593.91318110000
2543.71772482229	-1593.16052250000
2543.45796283950	-1594.65314489999
2542.82210661446	-1589.68071690000
2541.88158640541	-1589.72537220000
2541.68131399139	-1594.48431300000
2540.33870263273	-1589.20998120000
2539.92695049362	-1585.34606850000
2539.16123726830	-1586.01419940001
2537.98321048701	-1577.76423330000
2537.64706969696	-1575.10722060001
2536.17398759556	-1580.57201910000
2535.73379163972	-1578.38466930001
2534.91508786757	-1571.95886550001
2533.70265632180	-1572.47608920001
2533.28888501188	-1570.86961590001
2531.78230495193	-1565.45532840001
2531.26556754192	-1565.65826640001
2530.46120372732	-1564.70396610001
2529.26168316984	-1560.62509110001
2529.00828784818	-1564.35208770001
2527.66604225286	-1568.54959650001
2527.17336025452	-1568.39547090001
2526.30586049740	-1572.62905260001
2525.08862136392	-1580.38646940000
2524.76306841401	-1584.85919610001
2523.33651380324	-1591.50657780000
2522.77966014466	-1598.88784410001
2521.93703000430	-1601.04444030001
2520.63129726604	-1606.41514530000
2520.31728712720	-1610.81116680001
2518.91023046917	-1613.89354470000
2518.39463557471	-1618.36689720001
2517.48869390072	-1622.78862120001
2516.13800101107	-1624.78662180001
2515.72062124320	-1629.31146870001
2514.10789028485	-1634.12968170001
2513.31647940209	-1632.01130400001
2512.20249410794	-1631.38800720002
2510.68905540752	-1637.93999910001
2510.05871755267	-1638.30738840001
2508.27721104361	-1638.39781650001
2507.43317082218	-1645.29288090001
2506.34550563896	-1645.41281100001
2505.13869056818	-1640.55633480001
2504.49984710454	-1641.46848300000
2503.36872463765	-1642.80832080001
2502.00456980929	-1639.64467830001
2501.47947608014	-1643.13038430002
2499.80652838303	-1644.31564950001
2499.10038578752	-1642.46256630001
2497.98922498974	-1642.50176820001
2496.61300904532	-1644.71169150001
2496.11881704411	-1639.58048910001
2494.51784310188	-1641.61027140001
2494.05646378270	-1645.45004610001
2493.12931464756	-1644.09813930000
2491.91823964929	-1644.85929090000
2491.58698922798	-1649.42405490001
2490.19798775590	-1648.59263490000
2489.77103715120	-1648.89082860001
2488.91323090847	-1652.34506580000
2487.79003881842	-1651.06248870001
2487.43266355559	-1653.05785200000
2486.07350889996	-1658.38457220000
2485.62310940246	-1658.66864070000
2484.80114812799	-1659.35022630000
2483.70094884813	-1662.67854360001
2483.47182431637	-1659.81193260001
2482.10768005644	-1659.82842690001
2481.61213344108	-1662.08886120000
2480.82227738147	-1660.59757980001
2479.67278367392	-1658.54303370000
2479.47709626344	-1662.27034320001
2478.16898378616	-1661.11167450001
2477.88969124035	-1659.08765850000
2477.14974212828	-1659.88881660000
2476.20430123634	-1658.71812360000
2476.08013976382	-1659.58387320000
2474.97542385193	-1665.43832160000
2474.96198807298	-1666.74995370000
2474.54655820665	-1661.87729610000
2473.81516151815	-1662.74639820000
2473.99642594943	-1662.36895140001
2472.99962700357	-1658.87734500000
2473.00588670350	-1661.16786240000
2472.62543481828	-1665.26810400000
2472.02649528699	-1660.05040710000
2472.29331922287	-1659.61976730000
2471.47261259581	-1662.72731130000
2471.66261337489	-1661.04185310000
2471.47925797708	-1661.48348910001
2471.07606081111	-1663.21668690000
2471.54307686084	-1658.64173130000
2470.89112893412	-1656.36355110000
2471.20524856194	-1657.00445970001
2471.21082425493	-1651.71707550000
2470.72310763147	-1648.47569970000
2471.17809895200	-1643.74572450000
2470.51934866763	-1635.62784690001
2470.86971265042	-1635.42763560000
2470.96072771584	-1631.67180750001
2470.63600955118	-1623.69764040001
2471.27715221026	-1614.90032280001
2470.75393596538	-1608.06815130000
2471.08595989499	-1593.30213210001
2471.15706119725	-1574.81693880000
2470.87520068688	-1552.89690810000
2471.45720429079	-1518.14775390000
2470.99700690659	-1478.85672210001
2471.39236699342	-1437.72275400000
2471.48706700466	-1379.84823360001
2471.20382806914	-1318.47365850000
2471.71221692618	-1262.89399140001
2471.18937666131	-1205.00927940000
2471.57341575453	-1142.33813610001
2471.71826286354	-1081.49119980001
2471.34584041665	-1017.56032110001
2471.84660837024	-948.075825000009
2471.13874161173	-879.295800900007
2471.44774502839	-803.862986400009
2471.51405913091	-721.263823200012
2471.20617747108	-637.788316500007
2471.78945292852	-555.343591800007
2471.24042734988	-466.303784400006
2471.65978106975	-375.758883300008
2471.83231315601	-282.774345600003
2472.60142631510	-185.010886200005
2472.90047426909	-90.8770221000104
2473.40612787868	-0.944511000006980
2473.06720028051	99.8948000999975
2473.79062832018	213.991639499993
2473.50681851353	338.742768599990
2473.73749600792	471.787222799995
2474.20782615982	591.593950799992
2473.96770709586	719.861181899992
2474.64982639009	847.613066699989
2474.40493796660	974.421826199992
2474.65390004566	1101.09384839999
2475.15125675635	1219.88472419999
2474.82150338736	1332.44039699999
2475.59494616241	1435.96881539999
2475.42344809057	1537.41394559999
2475.75243697429	1634.81439629999
2476.54673680606	1731.77535659999
2477.10735030771	1845.30669629999
2479.38229545625	1952.44128720000
2481.35650664056	2062.99033229999
2484.41808040868	2172.70509659999
2488.23248379706	2284.52469450000
2491.44090990327	2392.55431350000
2496.15563205876	2497.87891199999
2500.57603499025	2604.70471530000
2506.76160657496	2697.94668030000
2515.04791751995	2788.00001550000
2525.27372465601	2876.33727300000
2540.28172360113	2960.83542629999
2558.58009386436	3039.94633560000
2581.01219272163	3117.33271889999
2607.21559866450	3188.46007410000
2635.99919381985	3255.44440980000
2670.51978109302	3322.27470929999
2709.55111245085	3392.77984050000
2755.32984448383	3452.82450119999
2806.96528895575	3501.18315150000
2861.08125691440	3533.99947769999
2917.66992506514	3562.21224030000
2973.98877003096	3591.35369009999
3031.12294742328	3619.67990129999
3088.92432773203	3640.93349970000
3146.44439183580	3659.42843760000
3205.01231067845	3679.94573760000
3262.52109029665	3695.57196360000
3320.34197689534	3714.09492840000
3379.50855997867	3732.00505620000
3439.92292099986	3743.81220360000
3504.10854494400	3751.72969110000
3570.38595646214	3756.01570590000
3639.70530445852	3740.06589660000
3711.31328205701	3720.77637150000
3783.35903411533	3700.63616070000
3857.60297702877	3679.07989860000
3932.11744980018	3649.26566910001
4008.02839743740	3620.02275030000
4084.90241926387	3588.92482620000
4161.02443829808	3555.02926320000
4238.16187706097	3526.81922730000
4314.81715618218	3498.10832790000
4392.75798215180	3465.88177350000
4473.24389873465	3437.17878600000
4555.59456033036	3409.61372640000
4641.89093941872	3378.52545750000
4729.34218569346	3354.57287310001
4817.99942094727	3330.12201780000
4907.45703711470	3296.88269550000
4996.51748069551	3265.18646190000
5087.31506942284	3239.16578730000
5178.66077932680	3207.00516540000
5271.69401113482	3178.92185400000
5365.19056647057	3153.25869000001
5455.10519922746	3119.96344800001
5538.40904208461	3088.43631450000
5605.28269206165	3062.40486720001
5648.38789252105	3029.18834190001
5664.10513932862	2993.14704480001
5660.16363384401	2966.35887120000
5650.22215908754	2936.05960200001
5637.38362665259	2906.53332990000
5623.92093698478	2882.78171670001
5609.87212653394	2851.92141780001
5593.03226755589	2814.74715450000
5573.38588257585	2786.38455750001
5554.96093746109	2755.52296230001
5535.85585112561	2722.48751670000
5516.95156127071	2693.61212130001
5498.50452875814	2666.00759160001
5479.28123047729	2635.90996410001
5461.20726742744	2611.44118410001
5442.30963209853	2586.79163730001
5423.52672528772	2557.80802320001
5405.25374477591	2531.40847140002
5386.02906089985	2508.03296400000
5368.05681872911	2481.82808070001
5349.23360703121	2458.73623950001
5330.63234722683	2437.42059750001
5312.46857570645	2410.17214800001
5293.42480700056	2385.92709150001
5275.55834228395	2365.62560310002
5256.73435429656	2340.18142440001
5238.13790861677	2316.60396240001
5220.12282363022	2297.71557510002
5201.13638038918	2275.94359080001
5183.43755591169	2263.01058450001
5164.88004274448	2259.81305940001
5146.47608125582	2266.10717700001
5128.73502273732	2271.62257590001
5110.09716826106	2263.49651820001
5092.64742500323	2256.88257210001
5074.58915875448	2251.48039830001
5056.68900176683	2221.28621879998
5039.56339393284	2100.29462789999
5021.53719139899	1953.72453479999
5004.72727577233	1891.26146999999
4987.19397739472	1897.14291719999
4969.83816860228	1874.01209759999
4953.27451153154	1842.44088989999
4935.67544129723	1853.67011099999
4919.50466106886	1862.59303559999
4902.73634820879	1872.28207350000
4886.10187155606	1871.49700739999
4870.21648924506	1857.60987959999
4853.39333000600	1846.26345509999
4837.90381898158	1834.17094289999
4821.82065520555	1811.50759589999
4805.83718507098	1787.73260459999
4790.55285218646	1763.31715169999
4774.32698249077	1738.30678649999
4759.43999560535	1712.20726109999
4743.83626495802	1692.30910079999
4728.46042568014	1668.81504899999
4713.78105358586	1645.22887049999
4698.14263474611	1625.60074289999
4683.72204108319	1603.53954959998
4668.73989995982	1579.92301979999
4653.81961513300	1562.16697289999
4639.64909963431	1538.13410729999
4624.62186353755	1515.66015419998
4610.76501396935	1500.11818769999
4596.32351888395	1480.74467129998
4582.00376973420	1458.45322829998
4568.37184976320	1443.45302579998
4553.80569600663	1427.19831779998
4540.42081499819	1404.28746689999
4526.61277552480	1389.27309449998
4512.71157440499	1372.17020399998
4499.53611087737	1348.78499669999
4485.48846617740	1333.34811989998
4472.68845587029	1318.82629679999
4459.29179862293	1296.81016109999
4445.97632305105	1280.39547179999
4433.35538375479	1266.66188849999
4419.75841665576	1243.65663119998
4407.55584633507	1223.11188539998
4394.76468380861	1210.38807509999
4381.98400945897	1191.33979589999
4370.12336660242	1171.51320029999
4357.26725812010	1158.30806039999
4345.85884261392	1141.65185699999
4333.82832079549	1124.54972639999
4321.89222076158	1109.61885359999
4310.60169584168	1093.50696209999
4298.43881886549	1077.63278519999
4287.41141744903	1066.88435729999
4275.87027886318	1053.29403749999
4264.00804503913	1037.27065199999
4253.43371524638	1026.83592869999
4241.86131352859	1013.60830469999
4231.19830297625	998.389027499989
4220.45585433558	989.043240899990
4209.24558247513	977.851299599986
4199.07012412236	964.376708099986
4187.86561265070	955.918350599986
4177.47727027878	947.157999899986
4167.08696502432	935.112601499988
4156.26767131038	925.080133499990
4146.51809336893	913.555802999985
4135.72842661337	898.010528699986
4125.82958337970	887.576207699986
4115.92114248301	876.354451499985
4105.48576494682	859.616223599989
4096.22172882424	847.504445699986
4085.84880019242	836.649676499986
4076.25889485161	819.254313899988
4066.63454485012	800.668456199992
4056.59428262173	788.456013899988
4047.55212107307	772.229466899990
4037.48432489527	753.512459399988
4028.22577934668	737.846584499990
4018.96747292557	716.766466799989
4009.16231938813	691.478738099990
4000.52394176575	674.341875599983
3990.76761491600	652.907778599986
3981.77686576012	630.338033399989
3972.84708613816	612.680281799983
3963.48802228696	594.553090799985
3955.19775150482	572.951324099987
3945.82124778185	559.007829599987
3937.20148828232	542.117889899986
3928.62960095852	523.376118599987
3919.42595091288	510.512620799986
3911.39300077002	495.779500799986
3902.32090270950	478.021889399990
3893.99419152856	464.313606299986
3885.73059841266	449.720173799990
3876.97275592064	430.597558499985
3869.29970479932	415.733109899986
3860.50189117869	402.926336399983
3852.52332585205	388.478670599988
3844.52695646828	376.593253499981
3835.99234626803	366.191339999983
3828.58402826496	350.528012999985
3819.96784998417	338.949282599984
3812.21021639271	330.926258399990
3804.52160513013	316.610010599989
3796.19184837834	304.918010399987
3788.85613035679	295.186730999987
3780.57280524541	281.420024999987
3772.92035563120	269.414722499987
3765.37039547001	263.817880199984
3757.18854879273	252.317061899988
3750.03104786228	235.245371999991
3741.78669321973	225.429698999987
3734.22671709702	215.459229899985
3726.75104535202	201.998182499987
3718.68798516045	195.679435199992
3711.70758804360	184.815547199989
3703.68498622771	171.366658199995
3696.46798123798	163.575671699993
3689.28480843148	155.321682599995
3681.65923634620	140.424692399993
3675.12695260614	131.276524499992
3667.40671315214	124.241191499992
3660.45557359881	111.448856099994
3653.50522311787	104.897177099992
3646.09333947843	97.8945197999970
3639.77575129966	85.3955057999920
3632.46377033668	77.7306626999924
3625.66250925470	72.9985865999916
3618.99424785692	62.4965003999934
3611.77600486514	54.4503662999918
3605.62845114927	48.3139055999895
3598.53538317877	37.6799543999932
3591.97386872566	29.7958130999960
3585.55735381065	25.2066428999915
3578.51728820742	14.1890762999901
3572.38619445309	3.23091599998762
3565.35319580987	-2.42233770000894
3558.92294889082	-13.5797259000101
3552.62236557877	-23.1553152000069
3545.34266901839	-30.4901829000100
3538.99514467581	-40.8161064000123
3532.07646768120	-53.0483061000105
3525.02832382197	-60.6195921000071
3518.70245986823	-68.1152010000060
3511.26440035919	-75.5795199000058
3504.95247259624	-79.4025321000062
3498.07847079453	-86.7386067000098
3491.07595089127	-98.6326062000080
3484.88097231258	-104.060214300012
3477.68539886085	-113.569602900012
3471.43804549690	-125.961694500013
3464.67055387125	-133.226070299970
3457.66659535126	-139.871529900013
3451.55534924824	-153.476913600007
3444.39107331035	-162.048987900007
3438.23465065702	-167.628084300007
3431.56478116976	-180.209122800008
3424.71352963654	-187.238868300008
3418.63047467684	-191.727999900008
3411.49479147217	-203.591245800004
3405.28991471224	-213.152620500007
3398.64454923030	-217.701739500004
3391.82262188998	-228.766956300007
3385.74674369273	-239.605946400010
3378.71247777846	-248.535039600007
3372.59903765502	-260.634659100009
3366.10152550287	-270.793672800008
3359.34709948689	-274.886896500009
3353.43517989613	-283.039729500009
3346.47479739613	-291.978835500007
3340.43863605185	-295.827729000013
3334.04538377717	-301.032373500008
3327.41854261441	-309.192179700014
3321.60569457293	-314.510272800009
3314.82891782076	-321.873435600011
3309.03211623949	-330.655197600018
3302.83172950036	-334.820656500011
3296.43290495695	-340.486515600009
3290.82047277058	-349.066188900013
3284.24846011804	-352.546754400013
3278.59080429846	-356.204868300016
3272.69285582485	-369.378986400014
3266.53767170173	-375.178677300011
3261.23074870716	-382.064131200014
3254.81769751990	-394.713918300007
3249.59073361377	-400.107509700010
3244.03830499251	-403.684359000010
3238.31716299309	-412.844551200014
3233.60071828826	-419.398152300011
3227.87656836037	-422.792580900012
3223.25611321782	-433.859406900010
3218.20360472598	-440.254188900011
3212.97782371014	-442.183843200009
3208.64503057307	-449.493857700014
3203.46073181193	-455.794501500009
3199.28046895559	-457.666984500012
3194.61381571304	-464.358529800014
3189.78517575923	-470.973593400015
3185.85475370012	-474.026782200012
3180.84167309973	-480.052029300015
3176.89056003369	-486.639378900012
3172.59442874857	-487.638602700013
3168.08014519013	-491.915945700011
3164.47896849225	-492.133008900009
3159.85759037531	-488.829634200014
3156.08509294876	-482.188599900012
3151.97882952560	-456.361878600015
3147.50303499577	-433.809566400012
3144.03527575234	-416.468514300008
3139.57728071017	-404.989688400003
3135.99838854662	-392.194536900006
3132.28025032777	-376.941064200008
3128.15400410476	-363.324907800010
3124.88615842118	-350.481167400004
3120.59475039144	-333.981011700011
3117.22528896251	-317.381487900007
3113.55600115728	-297.305734500005
3109.56987323673	-279.381794400006
3106.61839284618	-267.093719700006
3102.49717554145	-259.115619000002
3099.73660630068	-231.864621600005
3095.85657670393	-207.637355700001
3091.69047838109	-180.391901100007
3088.45286549838	-150.289669500002
3084.10957866505	-111.371838000003
3080.62934732010	-85.1382573000027
3076.85097429960	-54.2853785999996
3072.91484861702	-25.3077542999982
3069.79083047554	1.77713789999870
3065.59866093253	31.8521025000031
3062.33268906077	60.6211119000058
3058.81596369428	89.8922811000029
3055.01921835197	120.292304100001
3052.02540399011	149.487349200001
3047.93376451935	181.039648800002
3044.76977547248	220.458746100003
3041.33384925559	245.019563399999
3037.53659084624	215.453016599996
3034.64185022544	193.133680800001
3030.58737148737	193.078297500000
3027.53369802507	189.028700999994
3024.24558489046	203.410076699996
3020.52616764242	264.964748099993
3017.70243448108	259.154195099998
3013.88308764702	240.291420899995
3011.06923298964	221.845697699997
3007.87303773045	201.842090099997
3004.31864125586	179.574561599995
3001.65778885735	158.762241599997
2998.05583173764	134.729510100004
2995.30660361681	110.236770900001
2992.24061927109	89.2249994999948
2988.72550029633	78.3214178999987
2986.32393739415	42.6798728999966
2982.83538902366	9.28705079999960
2980.17724819771	-22.6960227000035
2977.49131563531	-59.1985791000024
2974.33001909867	-99.5887392000001
2972.25787187420	-138.846871800006
2969.12553782390	-174.690729000005
2966.96531297188	-211.277813100002
2964.61323147307	-247.414410600004
2961.92032957515	-283.459417799999
2960.19229207061	-317.015394900001
2957.33320419704	-354.975126600002
2955.38821565862	-395.796194700001
2953.29737608325	-434.450430300005
2950.77121962855	-470.855630099999
2949.15036168753	-524.645330399999
2946.37548495753	-576.108261600000
2944.56339417532	-558.543843600002
2942.28329421059	-568.847864100004
2939.57358645913	-580.992720000004
2938.24187319316	-613.019197200001
2935.21449200531	-662.732704499996
2933.60836305473	-746.064411299995
2931.64069521609	-774.553330499999
2928.97471766786	-787.465327800001
2927.74380209250	-799.565439000000
2924.65722750676	-806.135757899998
2923.06320667104	-817.822215299997
2921.11091326892	-824.058222899997
2918.43496230431	-826.927784100001
2917.27416712426	-833.775377100003
2914.26246215005	-839.343253799998
2912.73933291279	-841.196337000000
2910.86861164029	-846.787502399997
2908.22087215978	-853.261224600001
2907.37378591607	-859.642373100001
2904.46685399920	-864.103030799999
2903.00463587689	-866.887617299999
2901.26662258722	-866.204735400005
2898.65665069154	-869.620664700002
2897.86861823784	-873.845753400001
2895.04730553202	-874.067197200002
2893.63844813080	-877.446159600002
2892.06554472721	-881.576931300000
2889.47587871132	-876.587696100003
2888.62640192296	-864.495586200004
2885.69259034846	-847.740193500004
2884.24734092892	-811.940678699999
2882.54062308318	-789.248768400003
2879.99726980701	-788.621761500006
2879.19768570958	-767.022587400001
2877.66909085214	-754.253987700005
2874.86560649553	-803.471772000002
2873.12237216133	-935.311158900002
2870.75195008893	-1043.43581010000
2868.21258848696	-1057.68424800000
2866.25368952661	-1038.47004240000
2863.22231999676	-1057.03341600000
2861.18884534221	-1048.92072360000
2858.62483714486	-1013.68116570000
2855.91932331123	-997.965003300004
2853.82084908545	-934.772345100002
2850.66652442498	-912.469548300012
2848.37354919856	-885.310498800002
2845.57652846627	-818.390978099996
2842.62020500441	-792.075372900007
2840.35837523292	-784.829055899998
2837.06309016579	-790.400374499999
2834.70530451866	-797.114761500003
2831.84485564485	-799.943958600001
2828.72880322605	-794.533604699997
2826.36883357546	-800.037292199997
2823.02606905664	-801.633082200000
2820.61178997929	-801.975618299997
2817.63019637042	-775.866392999998
2814.43875605254	-716.476319100006
2812.06871295515	-681.760868699997
2808.58792734399	-724.214202000001
2806.18049344266	-775.460964000001
2803.19993517832	-798.003710400001
2800.19632103124	-834.040135200003
2797.85676448627	-865.861752300003
2794.48152955569	-876.746559899998
2792.18744003187	-884.450604899999
2789.41520009694	-887.874803699999
2786.48325036158	-887.948245800000
2784.31138733112	-894.456297600004
2781.02193154775	-897.384952200000
2778.68423418712	-894.283308600001
2775.91599829366	-896.286628500004
2772.94868996978	-899.245142700003
2770.68419278582	-897.886620300000
2767.33337775913	-900.360854700003
2765.04663576510	-895.453956899999
2762.13690174221	-915.948057599997
2759.09849335684	-946.458847200002
2756.84038360367	-969.737355600004
2753.51030057038	-1011.28770420000
2751.21850061629	-1058.10483030000
2748.42411825999	-1078.91317200000
2745.39948247316	-1080.54771690002
2743.18843665569	-1085.30151720001
2739.86967805756	-1094.65977510000
2737.53240889862	-1101.52573980000
2734.74068727961	-1111.63156050001
2731.77805384138	-1114.41847140000
2729.64447528154	-1115.24707530001
2726.50837959401	-1126.83313650000
2724.27638494977	-1190.93830050000
2721.77503167686	-1251.55114290000
2718.96870122543	-1227.62247300000
2716.94954094340	-1181.85052230000
2713.90711489015	-1150.52360010000
2711.84499473223	-1120.67700780000
2709.39502862055	-1091.49407640000
2706.74716699018	-1074.53006879999
2704.89127490005	-1072.15095600000
2701.99686146168	-1075.10048550000
2700.08696845962	-1076.43558510000
2697.86139382081	-1074.92794350001
2695.33339485464	-1080.93754559999
2693.67111578940	-1086.39568380000
2690.99293249550	-1086.75498240000
2689.28085305480	-1090.28047139999
2687.19554249623	-1096.52340749999
2684.87054258854	-1097.27749650000
2683.46346612860	-1104.34362780000
2680.93226764989	-1115.58169950000
2679.39224386753	-1120.73847029999
2677.51500759969	-1128.73078560000
2675.29132561431	-1142.52739590000
2674.18293078298	-1153.41260580000
2671.26611992741	-1162.67301540000
2670.01320355615	-1176.64936439999
2667.59594449239	-1184.13978810000
2665.29263763200	-1189.82746079999
2664.17912529531	-1202.75389620000
2662.27888511731	-1211.12826239999
2660.56152079411	-1216.40733239999
2659.03245454519	-1225.47428040000
2656.83112170398	-1232.97190080000
2656.11256517969	-1235.49467939999
2654.11527216456	-1242.72633480000
2652.48897323032	-1246.85625720001
2651.40172821783	-1251.91392810000
2649.29856979747	-1260.73614359999
2648.41044568744	-1268.39227020000
2646.79608143857	-1270.27302270000
2645.36456430005	-1275.51476820001
2644.53933682067	-1279.73207909999
2642.79453464925	-1282.55631450000
2642.32816402404	-1288.67695140000
2641.06238046106	-1293.50039430000
2639.97798721231	-1295.79211859999
2639.34236646253	-1298.67951510000
2637.74140046030	-1303.66816920000
2637.35315725771	-1304.14306200000
2636.07063770553	-1307.71445790000
2635.08194336608	-1312.72443390000
2634.45538935917	-1309.77713940000
2632.89932905841	-1310.97080820000
2632.54472712641	-1318.78463640000
2631.29643578045	-1316.49072180000
2630.28483764016	-1316.63948340000
2629.78036810166	-1322.35871429999
2628.29699541159	-1322.28308190000
2627.96257164474	-1323.13908689999
2626.76195963829	-1328.98928880000
2625.66976077045	-1331.25343320000
2625.16000889632	-1331.27462100000
2623.71176509731	-1336.55284170000
2623.38412737191	-1338.72029999999
2622.22977133071	-1338.90705660000
2621.25824601846	-1343.43342330000
2620.86387353548	-1347.11348490000
2619.58067903413	-1345.89898590000
2619.44008629702	-1354.29655140000
2618.49522714210	-1360.04112720000
2617.80419650347	-1355.36649060000
2617.55543676174	-1356.21221459999
2616.37179442921	-1360.79302590000
2616.39162111186	-1361.07257970000
2615.59557977578	-1365.35819219999
2614.89050312622	-1369.32746280000
2614.68520097147	-1368.03232500000
2613.50408871654	-1369.92970590000
2613.54378588967	-1375.79939700000
2612.75730046515	-1377.93020130000
2612.03323774851	-1381.50557549999
2611.85581286225	-1387.08949950000
2610.68182958229	-1387.47427710000
2610.77032949322	-1390.06540200000
2609.98898804834	-1396.51552260000
2609.25034933341	-1396.07294790000
2609.17157582874	-1397.60526390000
2608.07390145497	-1405.65180030000
2608.12934144879	-1409.06692500000
2607.40953781479	-1412.51740740000
2606.86458510113	-1419.97135590000
2606.81468347035	-1421.66347440000
2605.65573252170	-1424.21267069999
2605.73115665741	-1431.58772370000
2605.11289047270	-1434.08247540000
2604.47683763368	-1432.92438780000
2604.45115197725	-1437.74572980000
2603.37868143749	-1439.96906310000
2603.50498851540	-1439.38653270000
2602.98068443140	-1442.10907560001
2602.44943985363	-1445.80424580000
2602.50575219014	-1444.32852000000
2601.63175362676	-1447.05124170000
2601.91003968181	-1452.73797570000
2601.39144428692	-1453.66371269999
2600.91514756530	-1454.52119279999
2601.13985952972	-1458.51098070000
2600.30430765888	-1456.94084850000
2600.78521407708	-1458.03380820000
2599.82714015087	-1467.34602510000
2599.54346433353	-1469.67355410000
2600.26924616675	-1469.90653050000
2599.92497940807	-1474.18065509999
2600.33305065372	-1475.79481679999
2600.63252544106	-1478.04814379999
2600.57824803299	-1482.22079939999
2601.69266935849	-1481.13034290000
2601.64530989790	-1482.17958600000
2602.41245453258	-1487.61537420000
2603.02759858333	-1489.42961310000
2603.26313464836	-1487.98852980000
2604.39184740108	-1492.31253960000
2604.42987087814	-1493.37778530000
2605.22105142389	-1492.66115490000
2605.96093338603	-1496.21999010000
2606.09873520046	-1495.72824540000
2607.24513514361	-1494.31442910000
2607.23390910100	-1497.17974380000
2608.01731736457	-1498.87391850000
2608.85243587747	-1495.12613639999
2609.02271795169	-1499.39990340000
2610.16490714277	-1499.79169889999
2610.11005422968	-1496.85727800000
2610.90131211318	-1499.85329550001
2611.53394636373	-1505.02092840000
2611.54826636986	-1502.79066660000
2612.53329251506	-1504.52574180001
2612.21627421837	-1509.42772260000
2612.66368466048	-1509.63378960000
2613.00605526846	-1512.24990180001
2612.75446549030	-1519.42809600000
2613.38353916197	-1521.49846590000
2612.97321183187	-1518.75777480000
2613.18391291918	-1520.97529710000
2613.25695981603	-1521.61195920000
2612.74707311861	-1521.54392580000
2613.30063531880	-1524.31134750001
2612.62290412309	-1526.00301900000
2612.63127539587	-1527.38871900000
2612.53601177163	-1534.10998980001
2611.76747282357	-1534.88969190001
2611.95065853440	-1533.90575550000
2611.00717641584	-1538.76799800000
2610.64062671488	-1543.14779340000
2610.18441608418	-1545.10981050001
2609.20402310131	-1549.64288220001
2609.15811475173	-1552.62642840001
2607.93423747541	-1553.40009600001
2607.42633089625	-1560.42394110000
2606.77941447738	-1565.87626830001
2605.54048622167	-1566.90575400000
2605.33921349217	-1572.02971500000
2603.97106069974	-1578.12295080001
2603.26357873397	-1579.71181230001
2602.48893493566	-1586.59024830000
2601.10085808850	-1593.16990950000
2600.68961051788	-1592.69689410000
2599.12891429464	-1594.67992020000
2598.21739816303	-1600.21315440001
2597.19717049808	-1598.54986740000
2595.48816875413	-1599.63589860001
2594.82184748923	-1606.20411660000
2592.94775812670	-1605.69029009999
2591.73244021014	-1606.87600230000
2590.47306530920	-1617.19236000000
2588.58369224282	-1618.73830950000
2587.62141389659	-1617.48080910000
2585.47188889630	-1623.21224310000
2584.01314229413	-1623.86352210000
2582.50853375406	-1627.05970620000
2580.43327239385	-1636.21860210001
2579.40817807147	-1640.57712030000
2577.16425534598	-1640.47466789999
2575.63131455353	-1646.75126310000
2574.23949344732	-1650.91551509999
2572.25846472046	-1650.98167110000
2571.36856427006	-1656.16803329999
2569.30555062793	-1660.86305310000
2567.87075970127	-1662.07951890000
2566.58187714745	-1666.33629990000
2564.62359128665	-1668.71979330000
2563.67976699995	-1666.95624420000
2561.74095150145	-1669.42685790000
2559.83639818905	-1674.34738920000
2559.25354930956	-1674.88964490001
2557.60166939301	-1673.25009360001
2556.82002542684	-1672.56815040000
2555.83059676873	-1666.52788410001
2554.39181602009	-1667.67345570000
2553.87383379844	-1672.40182170001
2552.18116020797	-1672.84032870001
2551.31620044396	-1673.18054040001
2550.18051192135	-1675.38183660001
2548.64762761462	-1676.01268770000
2548.08673726375	-1678.29775170001
2546.47718391517	-1684.20137010001
2545.62752263850	-1683.91126710001
2544.58790060736	-1686.20218680002
2543.05933290736	-1695.78439170002
2542.50012015532	-1700.23910430001
2540.76198991873	-1701.10583730001
2539.80812508014	-1709.92586250001
2538.64323586491	-1712.35025640002
2537.17173762101	-1711.43480040001
2536.69223464083	-1715.44103790001
2535.05632857574	-1718.68715190001
2534.14390052890	-1717.12698780001
2533.18597053092	-1726.96541310001
2531.74770356573	-1738.15681800001
2531.32638112054	-1738.81726050000
2529.74448647874	-1741.36328310001
2528.94689892715	-1746.73014390001
2527.95271824713	-1748.87753190001
2526.45023502680	-1752.18743280001
2525.92201263989	-1757.24130420001
2524.28869827564	-1756.63727310001
2523.43333057516	-1758.67939260002
2522.52289126287	-1764.32683530001
2521.04737921274	-1767.85782240001
2520.51972641050	-1770.51286830002
2518.80915744031	-1776.32874060001
2517.97158297553	-1777.23771510002
2517.00336566848	-1778.10073800001
2515.66537539792	-1782.95457690002
2515.20152908446	-1784.92911000001
2513.63560903071	-1785.49197240001
2512.86720829357	-1784.92195800002
2511.96898769809	-1775.38212870001
2510.60764867627	-1756.08017700002
2510.24117255285	-1727.41625730001
2508.80891623262	-1696.09139130002
2508.06087175354	-1682.69354970002
2507.27672567485	-1671.75988500002
2505.96846176728	-1652.64679080003
2505.66546323781	-1660.05080940002
2504.16129510287	-1763.24330730002
2503.33348407923	-1877.66851290002
2502.49746582537	-1914.24616530002
2501.03109024000	-1893.10521090001
2500.70647612153	-1897.20366450001
2499.15572468401	-1913.24300790001
2498.30743415322	-1887.73674090002
2497.53664555738	-1859.39345430002
2496.13971904262	-1829.29256370002
2495.75027152734	-1811.35995180002
2494.35081219172	-1803.63972540002
2493.63701643950	-1789.72211220001
2492.78450051719	-1781.86742820002
2491.35550360647	-1785.66961020001
2491.07009337033	-1784.61719340002
2489.60329613510	-1786.80168240001
2488.84672268331	-1790.26418910001
2488.08987268028	-1792.13725320001
2486.74765604590	-1792.54165410000
2486.47938267302	-1795.58952360001
2485.17563399521	-1794.84750360001
2484.58412530113	-1791.78452550001
2483.97140731442	-1792.81727430002
2482.89931105611	-1792.94860290002
2482.87224894182	-1791.03146460002
2481.90067518223	-1791.21393000000
2481.69762046284	-1789.34234100001
2481.43085084022	-1785.63912480001
2480.60388764469	-1788.69083850001
2480.85645824658	-1789.36361820001
2480.08826677518	-1786.96506090001
2480.14124566983	-1789.76377260002
2480.53548264236	-1792.42395900001
2479.90299746903	-1789.51448070001
2480.54758556525	-1792.26026760001
2480.38934749076	-1793.88953790001
2480.29843861005	-1794.83038350000
2480.93426288181	-1795.02044790000
2480.35222268084	-1792.10904750001
2481.00055597976	-1785.17679270000
2480.94809951903	-1783.06467300001
2481.08406632072	-1787.21712420001
2481.70534174603	-1785.03916140001
2481.35126675371	-1785.95189070001
2482.20478308909	-1790.45295720001
2482.26879155810	-1789.04213580001
2482.33095717601	-1787.57695920000
2483.03190953392	-1792.39007640001
2482.64014345195	-1790.60457960000
2483.45831151415	-1788.08618160001
2483.61726360730	-1790.67703830000
2483.74978503444	-1788.56518680000
2484.45053333852	-1785.54860730000
2484.10192968175	-1788.20392140000
2485.03651833645	-1788.34401120000
2485.18608324900	-1784.02232580000
2485.41223346971	-1786.26979710000
2486.33883332894	-1788.47060160001
2486.14265075215	-1788.16056240000
2487.15618522144	-1789.86519690000
2487.52432860177	-1789.65005580000
2487.90526582910	-1785.21514530000
2488.93642648015	-1785.15296760000
2489.06038000597	-1784.17859700000
2490.31482909573	-1778.14883520001
2490.81956605314	-1776.10412309999
2491.32079458527	-1775.16899910000
2492.54322823900	-1771.60028520000
2492.74442545728	-1774.16535000000
2494.04804122507	-1776.04891860000
2494.84267237995	-1772.84468850000
2495.53250332280	-1774.00353600000
2496.86930721991	-1777.67787600000
2497.26580649069	-1774.18890690001
2498.67170316471	-1774.76531340000
2499.36034624320	-1786.89666990000
2500.13870791888	-1794.45606570001
2501.38852357824	-1804.22207700001
2501.59151745261	-1818.54100680001
2502.81295446982	-1824.85430070001
2503.29820790585	-1830.09327480000
2504.13418186125	-1842.02745960000
2505.31636347342	-1848.46309740000
2505.46706824976	-1852.57943100001
2506.65868949635	-1860.15210270001
2507.26251177664	-1865.33712390001
2507.80813739913	-1866.00735570001
2508.91663225342	-1872.91189650001
2509.10860625517	-1872.87881850001
2510.20946882819	-1872.84681330001
2510.57762218488	-1876.13691210000
2511.34193688709	-1875.06666000002
2512.36801578124	-1870.92113730001
2512.45812637671	-1864.64521260001
2513.67121395566	-1855.82639430001
2514.48889784927	-1839.45810360001
2515.12818403754	-1822.57598640001
2516.37120603897	-1804.38724350001
2516.68194066649	-1778.72452650001
2518.04117468753	-1743.10394580001
2518.92964126204	-1688.51894310001
2519.64120476259	-1628.63783970001
2521.08405127231	-1570.17730230001
2521.49302989752	-1508.68521090002
2522.88770246920	-1439.20840320001
2523.83338095287	-1365.40360740001
2524.57226772501	-1289.44163430000
2526.01202474588	-1207.86297210001
2526.51323579484	-1122.19193550000
2527.90044633052	-1035.44908230001
2528.77217872001	-943.367171700004
2529.55329907677	-851.094526200001
2531.13553063302	-758.333443800007
2531.67809837232	-632.855358600006
2533.49867260861	-510.907500600001
2534.99382886483	-383.188917300005
2535.46924092921	-250.227739200007
2537.06536828493	-111.406838100004
2537.88785390568	22.6017057000008
2538.78356429819	158.917842299993
2540.15857690130	296.596121999999
2540.45314885227	426.786704700002
2541.98311924903	561.682320000006
2542.75784941926	694.069550099997
2543.48344152147	826.677464100001
2544.75353041818	954.483838199997
2545.03315521424	1084.36867290000
2546.46928045644	1208.77065030001
2547.06948943908	1325.88178950001
2547.68756060536	1443.15916800000
2548.89614670127	1556.77659990000
2548.99961830270	1663.01486640000
2550.23939565301	1763.69401740001
2550.78760161967	1840.61918610001
2551.24323226860	1913.35958550000
2552.30252093068	1985.51410200000
2552.25652935601	2050.19862270000
2553.42021525698	2110.21986060000
2553.77393571284	2170.77731970001
2554.04231747282	2221.54154520000
2554.82332807036	2261.67481440000
2554.59908633008	2300.34076140001
2555.53023667854	2342.33386350000
2555.76814025348	2379.13447950001
2555.80134561043	2413.51789830000
2556.56401931080	2439.93090480000
2556.12277989278	2449.04291040000
2556.86340794355	2449.07594369999
2556.78905434369	2440.84573500001
2556.51014749615	2425.32097800000
2556.88009493193	2408.75193960000
2556.17657660298	2396.12030070000
2556.60949812655	2375.81997450000
2556.34820169642	2353.65150120000
2555.96108738654	2338.24989270000
2556.30698213699	2320.39572930000
2555.57210890945	2298.99560430000
2555.85476902712	2282.59785630000
2555.51519190012	2263.34525340000
2554.96687233347	2240.87711130000
2555.12087344431	2223.90523650000
2554.47995494987	2205.77496120000
2556.92998827990	2182.09071090000
2562.69455379449	2162.50080180000
2573.69290148403	2142.72592410000
2590.28874899515	2117.81018880000
2610.04835122902	2099.07226170000
2635.13030294014	2078.91171240000
2665.40684366760	2052.66735900000
2703.70787971990	2030.66874570000
2752.87425897297	2011.97614439999
2809.57264526657	1985.17679579999
2872.80786137301	1959.88589339999
2939.07730086142	1941.55808879999
3008.08641255835	1922.64985469999
3081.56900317134	1902.35565240000
3160.58321055345	1883.96674289999
3249.65372320734	1860.25451039999
3347.88125769740	1836.11499060000
3454.35743905230	1818.08234010000
3567.48493421778	1795.10908800000
3682.53216498848	1772.04960960001
3799.62822803862	1752.27169230000
3917.69402694599	1727.61628980000
4037.77421987166	1703.17044090000
4160.96501017791	1685.84141310000
4283.44207443526	1663.64486820000
4402.38032635225	1638.39978330000
4510.97600024263	1620.25355010001
4603.01894297360	1598.55067200000
4674.21462633814	1572.18562860000
4718.75684859217	1551.45654000000
4738.09992117248	1529.71875120001
4738.45829585529	1503.13105710001
4733.86991372752	1482.28977150000
4728.53492079780	1463.35292940001
4721.50823885466	1439.30647500000
4714.87138541792	1419.49668660000
4703.47170192672	1400.60230950000
4692.31086232095	1377.71407679999
4680.84488010653	1359.24850679998
4670.17312140396	1342.57621139999
4658.46133793769	1320.63181919998
4647.78487586780	1299.19977839999
4636.67586301612	1283.19811709999
4625.33575015083	1261.55080109998
4614.77865207399	1240.33403549998
4603.31181571386	1224.43348559999
4592.89099972646	1203.08722409998
4582.01579847856	1177.27351049999
4570.97731118976	1158.38945909998
4560.73963928163	1137.69255449998
4549.42170597357	1116.78453179998
4539.14330066727	1099.78029419999
4528.48265286195	1080.36002159998
4517.59346531763	1061.39314109998
4507.51120486449	1044.31474619998
4496.38191502267	1024.67374499998
4486.26991074997	1004.50112669998
4475.79898641567	989.883556199979
4465.04946859160	972.550058399982
4455.26065311715	952.888495199977
4444.36239411863	937.463687399982
4434.38997737210	922.277309399980
4424.15308215488	902.294621399980
4413.77619772313	887.583270299980
4404.37418013938	873.440279699982
4393.87623864194	853.374226199983
4384.57778510371	839.848587299981
4374.95070464291	827.702882099981
4365.16012729397	809.076168599981
4356.28314583608	793.379227199983
4346.44694377809	779.967528599984
4337.60409465390	756.765814799979
4328.38314344365	740.860034999984
4318.97752793278	729.341157899984
4310.49597150148	710.861820299985
4300.96578326821	694.460272799983
4292.46562947165	683.802049499982
4283.48018493659	665.863447799981
4274.38023431280	646.440850799987
4266.19413564926	631.911026399984
4256.91907929844	618.767840699986
4248.58770445025	605.282297699980
4240.01101855658	594.352655999981
4231.16358869509	581.273346599980
4223.16451252753	564.593273399983
4214.20702240316	553.503560999986
4206.18100552069	540.957522599980
4197.86182304662	527.240522999981
4189.30375893524	518.823870599981
4181.65881935858	511.201313699983
4172.95041791488	495.962323799981
4165.20437949803	481.359459599980
4157.20647574606	467.694758999989
4148.95235539350	451.643346599984
4141.59227885964	439.425719099985
4133.21994307090	428.888498699984
4125.83055788839	413.059781699980
4118.06825153676	400.409011199982
4110.06740819124	388.127775599983
4102.91415509959	369.119905199992
4094.74331727509	349.945661399991
4087.44979047324	332.253624899982
4079.92799453913	312.025533899987
4071.98501812332	296.185999499985
4065.03726928454	286.704101399986
4057.12227753215	269.999934899981
4050.10199631585	254.193970199983
4042.87705732506	245.921028299988
4035.23746147266	230.759995199993
4028.46198401811	211.571581499988
4020.67609663029	198.514800899990
4013.93593830208	184.170928499992
4006.97235660256	168.163053899990
3999.61094649990	159.255327299989
3993.16796384330	149.232335699988
3985.73077178611	136.736137799988
3979.21112912860	124.868511299990
3972.43119870902	109.564482899994
3965.38976170372	93.5504396999900
3958.26489872686	84.1694741999909
3951.36195258122	74.1719615999937
3944.29477162659	59.5700360999926
3938.07818016353	49.8656213999893
3930.80960702497	44.0288294999901
3924.55451365960	32.5812041999888
3917.91205969856	20.6739287999953
3911.19422362506	11.4944261999899
3905.25407463633	0.613328699993911
3898.22045165840	-2.24277780000372
3892.22162341825	5.24862929999108
3885.83518307972	18.1488257999936
3879.26539969159	45.0797264999929
3873.57476607095	63.1005314999929
3866.88097023389	63.3008768999917
3861.28240673427	78.7286348999874
3855.29417665949	85.7105513999908
3849.26587826462	29.5838456999955
3844.04056387849	-109.115739600005
3837.80050768189	-211.885464900006
3832.65714722272	-225.394698900007
3826.98768570105	-214.189302900006
3821.31522264467	-238.100137500012
3816.41003074386	-233.111975100006
3810.57021311132	-206.547927300011
3805.68275275067	-177.851421300007
3800.35610117641	-161.442230100008
3794.87643075665	-165.897836700007
3790.15955853335	-160.187948100009
3784.43296901068	-159.641848200008
3779.71547375777	-170.415799800012
3774.60923791514	-175.162224600009
3769.37928416862	-183.627063600013
3764.80809442525	-200.210003700011
3759.33178242356	-209.735082000010
3754.75851267731	-218.311402800007
3749.77702619808	-228.853316700008
3744.63461131090	-239.071826100007
3740.27160926412	-245.182450200004
3734.99077076220	-256.262060400005
3730.59794036930	-265.959457200008
3725.86864345401	-271.615258800006
3720.95906884372	-283.879955400009
3716.87650201809	-293.037644400009
3711.81440985986	-299.297253600011
3707.72565068921	-308.932830300008
3703.27691432362	-320.835993300008
3698.59156605964	-328.875064800003
3694.70985845445	-337.915639800009
3689.78637425010	-348.049666200004
3685.87646713636	-355.267017600005
3681.51389117027	-366.983692200005
3676.86267018522	-380.037299100004
3672.95468371996	-386.930128500008
3668.12335650370	-395.468230800004
3664.38189742028	-404.098459800001
3660.27545788107	-409.439484000004
3655.84630101115	-417.519992400006
3652.16970707422	-427.055709300003
3647.42120639146	-429.923571900007
3643.68413795235	-435.857854500005
3639.51276590885	-448.758185100009
3635.10528917233	-455.276115600007
3631.70476079065	-460.553352900006
3627.14774090013	-468.088476600004
3623.62105974391	-473.068637700002
3619.73942074048	-479.675834100004
3615.61225764812	-494.841560700006
3612.36149060799	-503.275467300007
3608.03272585482	-504.101612700009
3604.73514125945	-510.689588100004
3601.08303642097	-517.568560500005
3597.11638336976	-520.627202700003
3593.99862688679	-526.705061700008
3589.83999292479	-532.032720600008
3586.52206138088	-531.502355100005
3582.92995548636	-538.064359800006
3579.11913252574	-543.602332200009
3576.25867023411	-543.792754200005
3572.43334083001	-546.009874200001
3569.53304798519	-550.685583600003
3566.31563250539	-550.319133000007
3562.83585748028	-553.222576800010
3560.19989811344	-557.185231800003
3556.88902249155	-557.229082500004
3553.62575122315	-559.212734400002
3551.10435402299	-564.231605700002
3547.59173525274	-564.959545200009
3545.30709601056	-567.167010000006
3542.32743798141	-573.503324400010
3539.34787862155	-578.294404500009
3536.95120331151	-585.919464600003
3533.56081102929	-596.690019000009
3531.47351293973	-603.066027000008
3528.74561541337	-611.060353800007
3525.92630290105	-625.049487000006
3523.80474974602	-637.179726000006
3520.52829785105	-649.641549600006
3518.36801737569	-668.110248600009
3515.55608309450	-679.863532500005
3512.67071177457	-682.310768100008
3510.66361717346	-693.486393900008
3507.50843289322	-705.638133600007
3505.50424271057	-711.913030200005
3502.71411757830	-721.008943800011
3499.77089624323	-730.801641000009
3497.47801430356	-735.372573600011
3494.06944955870	-744.455032500007
3491.88183171454	-754.998198000007
3488.88953409121	-757.805894400001
3485.89528273945	-765.568362300003
3483.53687834635	-776.788777500000
3480.08506864864	-782.553155400001
3477.73374584506	-788.345023800003
3474.72620196699	-796.481988300007
3471.58430300867	-802.322311500006
3469.08179969884	-808.333746300009
3465.54594650235	-818.220268800007
3463.05439149425	-824.344034700005
3459.87432801364	-828.681722700008
3456.65551396838	-838.642089600007
3454.04927591104	-844.986047700008
3450.42781697762	-850.350137100002
3447.77960560420	-859.984059900006
3444.55719502485	-865.296610200004
3441.27804119259	-869.295025200006
3438.62190391896	-878.177004600004
3434.97247697206	-883.951395300004
3432.30287089530	-885.107203200005
3429.11587655347	-890.190844800007
3425.71513408211	-891.614137500000
3422.98671979879	-896.070727500003
3419.19340878165	-909.663014100002
3416.41213822277	-919.375385399999
3413.21372598595	-922.809194699997
3409.72232592040	-930.752742300001
3406.93773063446	-937.671184799999
3403.19206870558	-939.509338200005
3400.36348259414	-944.927648700011
3396.99458916983	-950.894070600007
3393.43683199389	-952.414630500009
3390.65668483936	-956.406385200004
3386.72106333021	-965.660626200003
3383.84695463680	-967.082399100007
3380.38201163317	-969.905561700003
3376.75889502441	-977.718495900004
3373.83314174230	-980.249320500001
3369.81430625756	-983.090139600002
3366.76960476040	-990.376016100004
3363.27872223479	-991.507462500005
3359.61290480088	-990.444451800000
3356.63006303136	-994.741820400004
3352.60881905044	-998.204818800002
3349.53345769507	-998.066114700004
3345.95481187211	-1002.16023240000
3342.18841940554	-1006.87094190000
3339.11301554761	-1010.86569150000
3335.01536952353	-1019.30053680000
3331.90039516531	-1023.06320400000
3328.40333556452	-1023.68976390000
3324.62689418682	-1028.47364730001
3321.61478014682	-1034.16717570000
3317.60958596560	-1037.09212020000
3314.67062170050	-1044.84296610000
3311.26207073863	-1049.42829210000
3307.73886061961	-1045.08327330000
3305.08171907085	-1048.57130370000
3303.02111354902	-1051.48297230000
3299.75334696430	-1052.86648200000
3297.66270090859	-1058.52103199999
3294.53159889745	-1064.02145640000
3292.04579481724	-1065.14145960000
3289.63244182469	-1069.50136350000
3286.70330533946	-1075.68784350000
3284.87734483334	-1075.36037130000
3281.91331255306	-1078.76798640000
3279.68341705367	-1088.25006330000
3277.55806967283	-1089.11018070000
3274.73591315661	-1092.06288390000
3272.97873293535	-1099.27357500000
3270.23681762539	-1101.16478730000
3268.10877330244	-1104.19987259999
3266.15465551348	-1113.21143730000
3263.55996630200	-1117.62900419999
3262.02844902693	-1119.70241370000
3259.48802261194	-1128.48010800000
3257.49514255615	-1135.31254770000
3255.63754636558	-1138.40453610000
3253.21209022974	-1143.59375910000
3251.76819549375	-1147.57255080000
3249.36344091681	-1145.93818470000
3247.47892282544	-1152.17159970000
3245.69168952707	-1158.81580770001
3243.27560235195	-1158.79761480000
3241.90692355075	-1162.77314340000
3239.48272127982	-1168.53935400000
3237.60731301647	-1169.28874950000
3235.92983330192	-1170.54642870001
3233.52154590887	-1172.94301920001
3232.22992498410	-1176.18984840001
3229.92309252950	-1185.00039720001
3228.13558083571	-1192.29767220001
3226.55593348973	-1194.29942760001
3224.31121418330	-1196.97963960001
3223.13432150196	-1201.87893840001
3221.04247679248	-1203.33401280002
3219.39411090876	-1207.91276790001
3218.00255888886	-1213.58881860001
3215.85625906005	-1214.08673190002
3214.68215664669	-1214.81011200001
3212.56831326963	-1221.72091080000
3211.01398740586	-1223.85573810001
3209.62574242616	-1224.08616660001
3207.56224607068	-1229.50112460001
3206.48790840700	-1232.06690460001
3204.47240403151	-1234.45044270001
3202.95253057538	-1241.13242220001
3201.60909018523	-1243.29317550001
3199.60432799541	-1240.85639970001
3198.60562310208	-1245.04036440000
3196.73894886427	-1247.12450190001
3195.27323869261	-1247.43168030001
3193.94570598503	-1252.30460610001
3191.93783599310	-1259.79252660001
3190.96982672641	-1257.90605250000
3189.05715943161	-1261.94845230001
3187.70854054019	-1271.38515870001
3186.65118289412	-1273.23868890000
3184.88327746257	-1275.23011860001
3184.20844448706	-1280.30419440001
3182.56678690858	-1283.15766360001
3181.47382937644	-1290.40675200001
3180.65647403662	-1297.82583450000
3179.12822650689	-1294.77045540001
3178.71922706232	-1295.07620340001
3177.34921790807	-1299.76098690001
3176.41095173443	-1301.98771740001
3175.71740063714	-1305.97120260001
3174.28206642868	-1315.85356800001
3173.89142967865	-1317.39844470000
3172.48104989448	-1319.86838790001
3171.47484451881	-1327.89400470001
3170.80926754081	-1333.41516990002
3169.33634322958	-1333.69740570001
3168.85507585151	-1339.90292790001
3167.40572015159	-1344.38142090001
3166.42523086669	-1347.90690990001
3165.61116300818	-1355.56393050001
3163.98788225949	-1360.40909760000
3163.42781762250	-1362.54410370001
3161.74467219660	-1371.52245630000
3159.91737293634	-1379.51356470000
3159.17640815984	-1381.98851430001
3157.39448363803	-1391.05219920001
3156.15991264477	-1396.78582350001
3155.01586006113	-1398.49497270000
3153.16670137684	-1404.39403170001
3152.28281248048	-1411.60391820001
3150.39605048803	-1409.79620550000
3149.03603434966	-1412.48790540000
3147.80751042743	-1421.78148240001
3145.80866600270	-1424.59981740000
3144.74654334479	-1427.73605880001
3142.56887975300	-1434.34611600001
3140.88921599765	-1436.92298160001
3139.39505035871	-1439.61588840001
3137.11195652718	-1445.63760420001
3135.87045810449	-1446.29558820000
3133.65770886161	-1450.81086930000
3131.88945504402	-1461.18609690001
3130.06674062996	-1465.47653700001
3127.64481391125	-1465.04460090001
3126.10690022595	-1469.05812450000
3123.46591120268	-1469.60297280001
3121.19408339122	-1466.76586380001
3119.04012953676	-1469.43829800001
3116.23959640320	-1473.55856520002
3114.44240017173	-1474.41014490000
3111.84591623469	-1478.16995130001
3109.70993087537	-1478.67863730001
3107.87324580663	-1478.07071730001
3105.24843533607	-1482.88598010000
3103.77561689306	-1486.90589580001
3101.32109071679	-1485.47929530001
3099.30592081113	-1490.92675020001
3097.67655121183	-1495.75645110001
3095.29040343098	-1496.20993260001
3094.14338151142	-1501.29987690001
3091.95353950192	-1503.63710580001
3090.14900209314	-1503.92282820001
3088.50616284711	-1509.03427320001
3086.16500765643	-1515.36665400001
3084.80343597383	-1515.57066480001
3082.55541233642	-1520.90091630001
3080.73009374434	-1532.60319750001
3079.18453192386	-1537.48939920001
3076.98355217749	-1542.30913200001
3076.00657922822	-1549.41285600001
3074.09712543980	-1550.14137660001
3072.59141212821	-1551.63851370001
3071.30566788684	-1562.30545350001
3069.32476459134	-1563.03589620001
3068.34965872978	-1559.68540770000
3066.46190371261	-1564.43089380000
3064.98428336901	-1566.36287250000
3063.80035552568	-1565.48572440000
3061.97202306727	-1570.49713080001
3061.26447555721	-1576.32623430001
3059.57494305120	-1577.82135990001
3058.38937528966	-1582.57274640001
3057.54569427673	-1585.98961440000
3056.00853547331	-1585.67331720001
3055.63972575699	-1589.55336660000
3054.34631715507	-1588.63504980001
3053.51921271648	-1575.14172900000
3053.01564977453	-1556.40813780000
3051.77303150232	-1526.19040140000
3051.50085849123	-1507.28051340000
3050.45175795406	-1503.17736630001
3049.69329591945	-1487.19988770001
3049.29936793884	-1477.17197910001
3048.02506071364	-1531.08576660000
3047.85747312006	-1664.41616670001
3046.69607798088	-1756.27891320001
3045.94724146963	-1761.91535970001
3045.35640146242	-1744.79253300000
3043.95750654781	-1763.12614860001
3043.65923313961	-1755.09847560001
3042.41786405966	-1722.25537410001
3041.46284145464	-1691.00024010001
3040.76762503577	-1667.22743910001
3039.23172304046	-1662.93503220000
3038.79741938822	-1655.58693330001
3037.23610595271	-1643.77670160001
3035.97542270349	-1646.48699670001
3035.72250705190	-1647.24667320001
3035.06889403853	-1646.78058630001
3034.11141615663	-1659.41222520002
3034.06831384477	-1669.70659050001
3033.03025633929	-1671.26107770002
3032.90654657085	-1675.32569340001
3032.49409460853	-1680.74181360001
3031.78007968386	-1679.44216110001
3031.89555949451	-1681.71882150002
3030.91191510519	-1685.20005750001
3030.82811994958	-1684.97843490001
3030.53143900500	-1688.47804260002
3029.91276669529	-1692.74148390001
3030.07090865251	-1691.68356900001
3029.22294949363	-1692.52634280001
3029.28933091441	-1694.62853910002
3029.05257478853	-1694.79352680001
3028.43399040791	-1696.51948320002
3028.66049715078	-1699.31707740001
3027.89552913589	-1698.53080440002
3028.07300081933	-1699.39011720002
3027.93413111773	-1703.94580710002
3027.36450852859	-1701.33926070002
3027.70623828650	-1700.53421370002
3026.92166153370	-1703.98004730002
3027.10338948513	-1704.59981280002
3026.99723659029	-1703.80205190002
3026.56666157471	-1708.80831780001
3027.08564990793	-1708.54499010001
3026.45206039824	-1709.57773890002
3026.93708974830	-1715.21016240001
3027.16386584307	-1718.88262500002
3027.01018424608	-1717.64720640002
3027.76650341438	-1722.79557360002
3027.48095054208	-1727.40561870001
3028.01749440902	-1723.85447190002
3028.27727625725	-1721.87220570001
3028.17509943988	-1723.41131610001
3029.02372396109	-1719.12190410002
3028.74465412754	-1719.43386540002
3029.42844242655	-1723.30810380002
3029.86214580235	-1721.25016050002
3029.87674697854	-1721.79505350002
3030.79186032539	-1725.12055470002
3030.62787963163	-1723.98785670002
3031.41475243397	-1723.20936150001
3031.90047104677	-1726.36312530002
3031.94272854897	-1725.06722760001
3032.87324097338	-1723.20337170001
3032.81704523572	-1724.30902620001
3033.48073939947	-1724.02397430002
3033.91225979072	-1723.87150260001
3034.03499271897	-1728.93708540001
3035.01757611129	-1731.84227250001
3034.96348066370	-1730.86267200001
3035.68904744582	-1735.06478490002
3036.22885351557	-1738.62438000002
3036.31031799782	-1741.80116430002
3037.33317284107	-1747.92662880001
3037.22243940454	-1749.40664580002
3037.88016163478	-1751.62702890002
3038.37785397978	-1758.73021650002
3038.35282872534	-1763.93691720001
3039.32087740954	-1769.11947990001
3039.22000872425	-1779.00703050001
3039.80909521012	-1790.24854410002
3040.24235174098	-1797.54085740002
3040.29889176464	-1810.24164720001
3041.33224302783	-1819.86345630001
3041.14640396557	-1822.29786300002
3041.81748022116	-1830.26894580001
3042.27893324255	-1841.22487110001
3042.15893865289	-1845.70457100001
3042.96866273356	-1855.17958530001
3042.69615143635	-1852.94387010001
3043.30088649701	-1841.53276470001
3043.75014379637	-1831.51410900002
3043.65482360714	-1818.62602620001
3044.54668217733	-1795.35851400001
3044.35399991431	-1771.35108270000
3044.93807816968	-1749.16571280001
3045.38240593801	-1711.02780690001
3046.21590791299	-1665.11420190001
3046.09689491906	-1614.05401770001
3046.92398083685	-1552.48727730002
3046.61613305168	-1486.42295700002
3047.10857826923	-1418.54609640001
3047.38061238880	-1341.96145230001
3047.23060951913	-1255.73975640002
3048.03899500331	-1166.21835120002
3047.71594081802	-1074.12329880001
3048.18176477317	-981.652766400019
3048.56711467648	-888.093565500014
3048.40065845950	-785.075934000013
3049.26666988697	-675.445608000016
3048.95025086765	-553.807342200014
3049.49893477829	-427.880960700007
3050.01336092518	-295.572447300012
3050.09360127513	-166.570974000011
3051.35822987021	-38.5927731000137
3051.63016034102	95.0250926999888
3052.77898773604	222.448924199991
3053.95442856032	350.284889699989
3054.61738711627	479.428285499991
3056.18337395524	606.813093899989
3056.72878685172	740.661075299992
3057.86537652886	868.238630099988
3059.03177170209	989.561403299986
3059.50895687582	1109.98646639999
3061.00788439224	1225.51786289998
3061.27183998142	1333.40783909999
3062.44984175055	1434.32863829998
3063.67507797138	1534.77248849999
3064.20922469984	1635.80159579999
3065.85732757834	1722.41978069998
3066.46881621270	1802.41735919998
3067.73940934239	1873.49076149999
3068.97917698117	1934.35910909999
3069.63340539981	1990.03832309998
3071.31165218515	2043.26882639998
3071.87416969563	2086.55635109999
3073.02573964668	2122.56550889999
3074.25649494293	2150.63094029999
3074.79255061956	2176.19428919999
3076.38398830431	2200.03816319999
3076.94286062890	2224.18300229999
3078.15766326188	2237.25104729999
3079.39489103367	2247.71142839999
3080.03863049906	2243.23964039999
3081.73687468795	2230.01586059999
3082.36480153982	2211.20064719998
3083.57774155490	2195.77977299999
3084.95397906312	2177.43011009999
3085.71828635373	2157.18449670000
3087.49951691255	2141.95104959999
3088.06819349361	2124.68527229999
3089.30505355330	2095.78220759999
3090.61116775270	2071.52883689999
3091.38943477643	2048.67149190000
3093.16169146283	2025.87502829999
3093.79624729509	2005.42714739999
3095.05889322907	1983.49035420000
3096.43145113693	1956.95066789999
3097.18927852874	1937.55439920000
3098.88205691659	1917.48660240000
3099.59167747240	1892.76267480000
3100.76179067305	1871.51528970000
3102.12897881288	1850.68017269999
3102.80597952830	1827.16868789999
3104.41346296695	1805.65189590000
3105.01903447474	1787.81360099999
3106.18545391057	1765.03193309999
3107.34996845993	1742.90543310000
3107.98710341363	1726.35110099999
3109.53538867435	1706.22421079999
3109.92916287435	1682.94364619999
3110.91179586893	1666.02491970000
3112.07831500492	1643.87271720000
3113.43728452749	1622.42722170000
3118.37902789527	1605.63776759999
3126.59591431476	1584.64477019999
3139.75489941951	1558.79923020000
3156.63586894249	1539.33398939999
3175.87617083529	1520.55493829999
3199.72985101791	1498.22764589999
3257.97686623719	1480.35984900000
3340.72565482025	1460.87279460000
3428.38378079668	1436.06568029999
3517.17125423854	1412.91514799999
3607.55784682086	1395.99557219999
3698.38740610507	1378.19799900000
3790.34202437083	1360.65208679999
3885.83158702767	1342.12988189999
3982.40788741958	1321.34143169999
4078.49911837778	1302.59693369999
4167.94679734400	1285.03242629999
4242.59679566878	1263.17412629999
4294.13227940811	1244.69286659999
4314.29721294164	1227.52931819999
4314.96760293207	1206.18502350000
4313.38209042884	1186.21945560000
4310.26867693397	1165.81640880000
4307.84022173540	1141.84344119999
4303.74160606895	1120.55967030000
4299.75676666211	1104.95431919999
4295.32923512616	1084.41069090000
4290.17592827565	1061.99100360000
4285.80387213247	1044.51589620000
4279.94503924811	1025.13504899999
4274.60265017631	1001.04693420000
4269.08833302260	982.945222200002
4262.93541306353	961.744190999992
4257.68857603888	938.753863499995
4251.20467244583	923.119144499997
4245.48591217982	906.887322899995
4239.54876966389	886.675681499999
4233.15246429227	870.086930399996
4227.58094239950	854.286329699990
4220.82502995266	834.729051599994
4214.84466589252	820.859580299997
4208.71325305101	806.898071699996
4202.01103890471	786.819949199985
4196.34065369253	769.726222199992
4189.47234692481	758.558955299992
4183.41110218958	739.274838899990
4177.30844265352	717.313326599991
4170.67776030406	699.857484899995
4165.06955317321	682.149356399994
4158.38776712753	666.181488299995
4152.43682901824	653.527365299996
4146.50375470870	636.466269299995
4140.12153237735	619.222037399998
4134.73864205126	605.925173099997
4128.23999591040	589.890612599995
4122.38778643767	574.665166799990
4116.67987744560	562.411332299991
4110.33175069071	544.276050599997
4104.95642569873	526.318093799993
4098.59313566509	515.844570899992
4092.93471165921	500.485203899998
4087.34849268594	484.802432400000
4081.20318202349	474.038672399993
4076.11474249581	461.616363599996
4069.82948300028	444.588434999996
4064.23856539155	436.342313099996
4058.79261119284	423.840035999998
4052.67576216774	404.225541899999
4047.59736857556	392.619589199999
4041.36123693186	382.184955300000
4035.86010479001	365.122428899997
4030.43149039835	351.771879899999
4024.45141880153	341.408229599998
4019.52691179223	325.871761199997
4013.50188493059	318.389651699998
4008.17499509916	311.926165799996
4002.78804036939	297.061985399998
3996.94863373847	282.007651199996
3992.12410634838	270.625332600006
3986.27138282342	259.723404900007
3981.06133986788	248.043384300003
3975.97132735794	238.065271500007
3970.35240131180	224.776095600008
3965.91470733838	209.226619500011
3960.51790667457	198.656410500009
3955.66377327057	183.534892200005
3950.97341926104	165.427860900009
3945.67548051577	152.106054000006
3941.55551988357	134.252784600003
3936.65440074568	117.896160599999
3932.09350378768	105.257637900000
3927.01776471772	89.4499298999981
3922.88563725800	71.4965771999960
3917.57853298884	59.6200553999988
3913.06025622218	43.9601256000006
3908.50712668965	23.2985786999943
3903.41952806734	7.74785099999470
3899.34736716785	-8.55102060000719
3894.09833143598	-27.6781506000116
3889.62817870102	-39.2247864000055
3885.11982743062	-52.3871037000062
3880.09553611750	-70.6232286000049
3876.04413085633	-83.8968489000071
3870.83955078281	-95.1418044000093
3866.31625428245	-110.850189000008
3861.76908085280	-123.788827500008
3856.71821649091	-133.169971800009
3852.61682444780	-150.407901000014
3847.35123543056	-161.784006300010
3842.80309139908	-167.001077400010
3838.22810397949	-179.601471000005
3833.08105008109	-197.562735600008
3828.87068875704	-209.930778600012
3823.55764199481	-221.113914000010
3818.97451632814	-228.581049000005
3814.32939009441	-224.021157300007
3809.16506650036	-211.246657200004
3804.97446491812	-192.010325100009
3799.66064219722	-181.185370800006
3795.16389446084	-180.936570600012
3790.51770354885	-169.908141900010
3785.43468303590	-170.437300500005
3781.35174625649	-240.515993700011
3776.08562008069	-379.797975300009
3771.60128989219	-470.807220000008
3767.09066882008	-475.188177600005
3762.01371636151	-472.516548000005
3758.02435717486	-501.588846900009
3752.77380853495	-493.885293600010
3748.26391568384	-470.519799000009
3743.69074200481	-446.850344400012
3738.63606947339	-429.220575000011
3734.62429348988	-431.149245900015
3729.45797457294	-427.726611600012
3724.92651733469	-427.324401000016
3720.47908308096	-439.107231600016
3715.44784439792	-451.473933600016
3711.44328750848	-465.200811900014
3706.37927355171	-483.705896700012
3702.01401625138	-499.052345400016
3697.72302977869	-507.784043400014
3692.90809297319	-521.873170500009
3689.08638481035	-533.831314500004
3684.13245766414	-543.513915600010
3679.86901166248	-554.869146000005
3675.68453685454	-562.283266800007
3670.91700961711	-565.118140800010
3667.17775667545	-574.202208900008
3662.38274286917	-587.250094200009
3658.21257651821	-593.720598000007
3654.21907906835	-601.906956000006
3649.58741777333	-614.621602800009
3646.18862186742	-621.798768900006
3641.74656549535	-630.473429700007
3638.00714138021	-642.869276100008
3634.35713801239	-649.226644200003
3630.04024139389	-656.084026500005
3626.82473131112	-666.927307800006
3622.69853508366	-675.338596200004
3619.19257206607	-681.670485300003
3615.77520293027	-693.075690300008
3611.83053798326	-702.565276800008
3608.86608536656	-709.565833200008
3604.98580603246	-721.371192600007
3601.66369263423	-731.017854900007
3598.43650307493	-737.355778500008
3594.72115267565	-748.190835000005
3592.02338542968	-757.953717300006
3588.31282486146	-763.026943800009
3585.24806913758	-770.409595800009
3582.33116317564	-775.396014900011
3578.69580166150	-779.071740600009
3576.05012512725	-787.432026300007
3573.78048322013	-795.400024800005
3570.28682730762	-795.782880300005
3567.91490940525	-802.912217400008
3564.85959286876	-811.182969000006
3561.72957806102	-815.156575500007
3559.17452503844	-821.506523400010
3555.65407337686	-825.446873100003
3553.22384753061	-826.688594400004
3550.31317575680	-836.076667200007
3547.20059889044	-847.461399600006
3544.76130338552	-849.453455100011
3541.25458221012	-852.919895400010
3538.85659394091	-860.743244700003
3535.79541023212	-864.602061600008
3532.70012739489	-867.565671600009
3530.35079100014	-875.926359600015
3527.00743969417	-879.531504000007
3524.74772440748	-882.191154000011
3521.83401617038	-890.470845600011
3518.81449249468	-897.613503300016
3516.43485844177	-901.479740400017
3513.06054161326	-915.406383000012
3510.67216999540	-923.670742500016
3507.72183593259	-927.867089100009
3504.67543830720	-940.716774600006
3502.37623704596	-923.636100000017
3498.95149367807	-904.889322300010
3496.61255367478	-900.932076000006
3493.78032848110	-894.551821500008
3490.77022961531	-889.703748900008
3488.51574407595	-888.552723900010
3485.32324332743	-890.467582500001
3483.16087472187	-877.877604000005
3480.46783192125	-866.042653200003
3477.66276933816	-861.257920500007
3475.69922693257	-840.731948700004
3472.66162245615	-837.059843700003
3470.77449107262	-834.095697300004
3468.32065116439	-834.217236600001
3465.77144423306	-790.427999100000
3464.00261943254	-798.110453999998
3461.27131279756	-798.193685399997
3459.56348404038	-798.555800100001
3457.46254885005	-808.793932800001
3455.25893410481	-813.950614199999
3453.87020903428	-819.683299800000
3451.55233935235	-829.531693199995
3450.25009731992	-836.658527099997
3448.44637909233	-840.690824700004
3446.54079549007	-850.747073100009
3445.43559998777	-857.331338400009
3443.28812659028	-859.851166800003
3442.15685704921	-867.152107200002
3440.50435679303	-874.016641500002
3438.67840530992	-872.710015800005
3437.57708797989	-879.648260400006
3435.37878268624	-887.567848800004
3434.10945528624	-889.931853000003
3432.44968954152	-903.019566000002
3430.62764924115	-959.926957200001
3429.47801722810	-978.487961700002
3427.25579342215	-1002.58103820000
3426.07763855352	-1028.89945950000
3424.41859540773	-1050.98943960000
3422.52399708231	-1066.08127710001
3421.42234070608	-1095.95245440000
3419.32515605743	-1125.71590470000
3418.20450085050	-1137.84846810001
3416.63785132012	-1190.57842080000
3414.93167728095	-1209.14729250000
3413.97794076251	-1227.48229380000
3411.98678184737	-1243.76891760000
3410.98357740988	-1290.59869380000
3409.55340031055	-1312.99527120000
3407.95865332110	-1320.86895270000
3407.14066938851	-1324.15507320000
3405.21562344307	-1331.97578520000
3404.29234408687	-1345.44385050000
3402.92413911265	-1350.79631790001
3401.32090914720	-1354.75941990001
3400.46931598572	-1363.23579150001
3398.59728736774	-1368.91519470000
3397.61714203063	-1370.90827830000
3395.81074377527	-1380.73239960001
3394.08841079855	-1387.75141710001
3392.89504525019	-1389.19857960001
3391.80038316408	-1395.30813090001
3390.12198012745	-1400.64110910001
3389.33895232635	-1401.34897830000
3387.58180483463	-1409.79522210000
3386.38267940405	-1418.56929570000
3385.41728143493	-1417.30844280000
3383.64663288358	-1421.46567690001
3382.81775448230	-1428.19414440001
3381.10069461039	-1430.32405470001
3379.84649033987	-1433.95722600002
3378.72337523489	-1439.66881320000
3377.00795005811	-1441.60436790001
3376.30351531190	-1445.64421980001
3374.60193112653	-1452.61058070002
3373.45935015019	-1456.53823560001
3372.42227381454	-1458.45506100002
3370.63784384403	-1465.32540630001
3369.89575729421	-1469.58567390001
3368.23084288314	-1473.08434290000
3366.94894664046	-1481.10598140001
3365.85135353889	-1484.87593470000
3364.16343272532	-1489.00442670001
3363.47780827754	-1498.94521500000
3361.77969768774	-1501.09327350001
3360.69833636700	-1499.04771210000
3359.87599501758	-1503.35196450001
3358.29318018699	-1506.49951500001
3357.87490388938	-1508.38817940000
3356.39811712884	-1516.59116580001
3355.62256947030	-1522.58038470001
3355.06929898344	-1523.69770590001
3353.69316549815	-1530.79941840000
3353.27612001199	-1537.49476320000
3351.73601321843	-1540.26379410001
3350.71811946522	-1545.64732800000
3350.18496989929	-1552.06168860000
3348.07715814321	-1554.06196890000
3348.00302480985	-1558.32442680000
3346.12329749071	-1566.78211379999
3345.15750430618	-1568.69679360000
3344.41592724955	-1573.63064550000
3342.62272102386	-1583.10767130000
3342.35570800160	-1588.84715130000
3340.59248330478	-1593.21018420000
3339.44670082934	-1601.49327300000
3338.86301080521	-1604.99453460000
3336.81915634617	-1607.58208350000
3336.34605868310	-1615.97097720000
3334.81602149179	-1621.88876550000
3333.69133171192	-1624.66830090000
3332.80692949153	-1630.63208550000
3331.12766794674	-1635.10284540001
3330.54190433698	-1636.21542839999
3329.02236964561	-1640.98259400001
3327.87887490255	-1641.59636970000
3326.93321059248	-1646.33738580001
3325.33680120827	-1657.64492129999
3324.77701975064	-1664.32301190000
3323.11449252036	-1666.71629460001
3321.81822667491	-1671.64196640001
3320.76040379179	-1676.26765650000
3318.99158084275	-1677.55224510000
3318.20900642054	-1683.92628630000
3316.53493452860	-1690.57746750001
3315.12402310342	-1692.56956770001
3313.99871330402	-1696.59873630001
3312.12116100652	-1701.37037190000
3311.22173984812	-1702.30245630001
3309.35943199972	-1707.31904790001
3307.77449841774	-1711.72065690000
3306.50382455581	-1710.89129310000
3304.34771834973	-1712.98946640000
3303.26013075982	-1720.41185670000
3301.30132416186	-1721.25968160000
3299.61347331149	-1722.01059690001
3298.22590789254	-1726.64451180000
3296.02784530438	-1726.83345870000
3294.70853242553	-1727.96436870000
3292.45001992575	-1733.56782659999
3290.57820833365	-1736.58212640000
3288.85457448898	-1735.70479950000
3286.48990280856	-1739.85675900000
3283.91842841269	-1742.27797920000
3281.94848787064	-1743.63744030000
3278.94213332284	-1749.31161360000
3276.84675282966	-1754.14305780000
3274.34375721325	-1752.81238350001
3271.58973698131	-1761.73526340001
3269.61212448256	-1767.18799290000
3266.53462411530	-1765.94662920001
3264.35994633654	-1766.80933920000
3261.78093023940	-1770.65117010001
3259.01990280146	-1770.85236480000
3257.03482646977	-1775.20301580000
3254.07811395328	-1781.10815400000
3252.04576219276	-1781.21923350000
3249.63884861909	-1784.01132960001
3246.99631633025	-1789.17882840000
3245.18163598365	-1792.45323750000
3242.24356487269	-1797.47228760001
3240.30512694519	-1804.77702750001
3238.00993003688	-1807.24942920002
3235.29333295562	-1811.25785700001
3233.43396477209	-1818.07635030001
3230.48586340290	-1821.04174830001
3228.38521461401	-1823.35904100001
3225.95471227194	-1832.27378550001
3223.37703574491	-1836.11472240001
3221.57118210805	-1840.29461940001
3218.69816482689	-1850.08964100001
3216.80125627649	-1855.49574840000
3214.37313140772	-1858.24976010001
3211.64793508775	-1864.77730110000
3209.89341687765	-1868.62364670000
3207.12027221349	-1868.04268080000
3205.21013622310	-1873.38155940000
3202.99995801348	-1875.90111960000
3200.51124033613	-1876.85997930000
3198.93337945581	-1882.56481680000
3196.32253584366	-1887.74156850000
3194.78225085907	-1883.97818610000
3192.95637914383	-1885.06716749999
3190.93154961443	-1885.56186240000
3189.83794352709	-1882.53830970000
3187.63398125509	-1888.87453469999
3186.38227347838	-1898.28048749999
3184.79250071972	-1898.93364390000
3182.87803699313	-1900.30048050001
3181.81888918518	-1905.71874630000
3179.71886412172	-1903.83093120001
3178.55257684459	-1906.55088150001
3177.11571980977	-1910.48971140001
3175.31716598833	-1914.60689430001
3174.47604356745	-1921.12312620001
3172.50274988087	-1928.60121270000
3171.50662191928	-1930.75789830000
3170.16218806963	-1932.15311940000
3168.49944453206	-1937.02689450001
3167.74252177563	-1940.66940810001
3165.85055842644	-1941.77805750001
3164.87981166466	-1945.72243020000
3163.64498507411	-1948.21132620000
3162.08899276845	-1953.72381960000
3161.46527472032	-1962.58134810000
3159.73527859168	-1966.77040860000
3158.97926872353	-1967.48958690000
3157.93814962128	-1970.76435360000
3156.47566272356	-1974.37061550000
3156.02921524504	-1975.01916780000
3154.53079869920	-1979.92079100001
3153.79047101884	-1983.26958090001
3152.69305112162	-1982.28403530001
3151.27697867889	-1986.46969860001
3150.83329576977	-1991.02275120000
3149.15248208798	-1989.44698680000
3148.34561275585	-1991.81751720000
3147.35445524892	-2000.30984670000
3145.94904534148	-2000.46039630000
3145.47082689494	-1998.09804600000
3143.82284811024	-2002.52598330000
3143.03691533741	-2000.90766450000
3142.04665038174	-1994.45383380000
3140.69230664797	-1986.18545130000
3140.11086992091	-1964.17374090001
3140.07615119984	-1926.29429040000
3139.17579761060	-1901.09935890000
3139.11266122306	-1893.57433740000
3137.98301448334	-1871.32549350002
3137.88685532398	-1859.78909400001
3137.41040669019	-1893.45646350001
3136.64264186906	-2016.99179730001
3136.59633320006	-2136.40878600000
3135.57618591722	-2159.04558120000
3135.39289966406	-2134.77741480001
3134.86348657872	-2154.23353680001
3134.16230455902	-2146.96080210002
3134.19711909298	-2106.20177760001
3133.14408911272	-2074.86868680001
3133.08547040925	-2052.67343820001
3132.72825054560	-2044.61349180001
3131.92347375195	-2036.35936860002
3131.91753172726	-2029.37052360002
3130.84414677462	-2024.41458990002
3130.88066823171	-2029.09883700001
3130.57583306454	-2034.62179020001
3129.82444192758	-2036.51537160002
3129.82907348919	-2041.82912880002
3128.86784715764	-2047.65528210001
3128.99445997728	-2047.59739560002
3128.63447349591	-2049.58824420001
3127.90448988158	-2054.19314880001
3128.11834302956	-2052.10042890002
3127.31257110990	-2050.07842440002
3127.39174352729	-2058.82956690001
3127.02248904197	-2064.49636470001
3126.35216402358	-2063.25504570001
3126.58144374859	-2068.80687510000
3125.66976979056	-2068.94897640001
3125.62340999342	-2068.01215380001
3125.12275526077	-2073.91523580001
3124.37698624255	-2075.59501710001
3124.56403978568	-2073.77326860001
3123.68465708593	-2077.28409600000
3123.51840399903	-2079.76306860000
3123.12981196726	-2078.03474310001
3122.36287454193	-2080.76658360000
3122.41023729247	-2083.35726150000
3121.39587562042	-2083.13358270000
3121.28599303131	-2087.00764230000
3120.96548351324	-2088.65881560000
3120.25604078992	-2084.55280770000
3120.34645689791	-2086.25243580001
3119.29952891722	-2088.47737830001
3119.27907994887	-2086.67261580000
3118.93857347050	-2088.45319560001
3118.30746693675	-2089.71722220000
3118.45520364060	-2089.05722670001
3117.54588220287	-2092.68217320001
3117.55428411265	-2096.85299610001
3117.24036074542	-2094.33987270001
3116.43313275445	-2094.02567640001
3116.60122547648	-2097.56345790001
3115.63489312308	-2098.04299950001
3115.62425990735	-2099.15263230001
3115.33581272685	-2106.24044310001
3114.56717885654	-2108.97800520001
3114.72833258668	-2104.56884190002
3113.77991973732	-2106.67599990000
3113.73077439751	-2106.94728420001
3113.35323339345	-2105.13854340001
3112.61495819609	-2110.03802100001
3112.85903235593	-2109.79145580001
3111.93816208756	-2109.54985230001
3111.94469842351	-2115.17744820001
3111.67001953458	-2118.43992240001
3111.04392288630	-2117.26243500001
3111.36380226122	-2121.77534700001
3110.52730148536	-2128.44373770002
3110.57190817937	-2130.08024940001
3110.48777011805	-2136.79642440002
3110.14266208895	-2143.08651900001
3110.69350323203	-2148.12300210001
3110.14202313471	-2156.19390000002
3110.51057212256	-2166.40011690002
3110.65817669259	-2174.04180540002
3110.41179049834	-2184.26076180002
3111.12543298052	-2197.12707570002
3111.20286140975	-2210.80545450002
3111.05160927357	-2225.60285310002
3111.98747503934	-2242.43486160002
3111.80232585869	-2253.85535400002
3112.09513617680	-2266.01665950001
3112.61062337077	-2281.98707550002
3112.42907217239	-2293.92787590002
3113.24722359113	-2305.46637630002
3112.87374857965	-2317.67372280002
3113.12722892584	-2323.53045090001
3113.50243197077	-2328.47217000002
3113.15866231599	-2346.27685050002
3113.95134957995	-2357.96773320002
3113.52945733203	-2363.57624220001
3113.61677937194	-2373.41006340001
3113.87335661154	-2380.20786060002
3113.54258360738	-2382.65366580002
3114.09564298718	-2391.05498610002
3113.59860733232	-2395.93725420002
3113.66266549377	-2398.26053670002
3113.74654836502	-2405.89297230002
3113.29388528827	-2412.96866940002
3113.72534122566	-2413.52563140001
3113.06639493068	-2417.15361750002
3113.00110523021	-2424.90249660002
3113.04462859776	-2425.77155400002
3112.41111419568	-2431.08110940002
3112.68827812295	-2436.85420380002
3111.96877573460	-2437.15659930002
3111.70541021266	-2438.18148090002
3111.53245864952	-2444.03145930001
3110.73704708274	-2445.47450940001
3110.82186322981	-2445.19508970001
3109.89774332321	-2448.89405940002
3109.40643306503	-2451.76397820001
3109.01305827263	-2453.86246440001
3107.96460646628	-2459.57673360001
3107.87794116077	-2462.02012500001
3106.72726938313	-2463.37305990001
3106.11004943461	-2468.44195050001
3105.56499645775	-2470.51978530001
3104.34560532056	-2472.41457360001
3104.08619661801	-2478.26482020001
3102.76812447863	-2481.07229310001
3101.97571353658	-2478.12611610001
3101.34246368948	-2479.55852760001
3099.87564439384	-2481.56859720001
3099.36265686810	-2480.27734830002
3097.84322245881	-2483.08504470002
3096.75531855780	-2486.26039860002
3095.81340923269	-2485.65904950002
3094.18020991500	-2491.00646580002
3093.44011812584	-2493.21992040002
3091.68412847665	-2490.39505920001
3090.39392281963	-2493.54319080001
3089.33581738781	-2499.72953670001
3087.51859748881	-2501.39349420002
3086.69251101034	-2504.10763350001
3084.94152140116	-2509.35460890002
3083.64190805296	-2508.99142140001
3082.68340955442	-2513.02921710002
3081.06250547115	-2520.71940510001
3080.43590078555	-2522.21578230001
3078.84548945917	-2525.34701730001
3077.69230083908	-2531.93950740001
3076.78537623741	-2535.74298570001
3075.08036468837	-2538.73909260001
3074.42053178502	-2544.09598530001
3072.86747432418	-2545.11295500001
3071.83448873468	-2544.30138180001
3070.89542008995	-2548.31177640002
3069.24843994138	-2551.26886020001
3068.70245008720	-2549.55050280002
3067.22201849697	-2551.75036859999
3066.16120698485	-2554.76538360000
3065.23944106777	-2555.59926210000
3063.63497267791	-2558.80233000000
3063.02375774810	-2562.10194990000
3061.42689954027	-2561.82279840000
3060.33277611351	-2565.25079670000
3059.42338213683	-2567.46165870000
3057.63938587817	-2563.95168060000
3056.96389208574	-2563.98122730001
3055.01321919874	-2557.14905580000
3053.40396287133	-2525.04283380000
3052.67933514508	-2454.28032000000
3051.57966809724	-2437.79496000000
3050.23211615607	-2423.31363510000
3049.79970770190	-2424.69012690001
3048.29308714631	-2423.43995730001
3047.82622487006	-2410.22274840000
3047.02284675241	-2412.74668920001
3046.11720815430	-2409.88146390000
3046.22109046616	-2393.67194760000
3045.20796870906	-2389.65542910001
3045.19848299161	-2386.14549570001
3044.82664531322	-2377.54740600000
3044.15349728148	-2369.81689860001
3044.28983978032	-2365.52797830001
3043.29426163126	-2356.86212340001
3043.14594974295	-2345.83986330001
3042.64120147507	-2334.79350990001
3041.78113021645	-2321.52310800001
3041.74087713179	-2307.41006640002
3040.73434786953	-2295.38697330001
3040.65285476621	-2284.82838630001
3040.16364908557	-2267.57785170001
3039.29807685980	-2254.69191450001
3039.32880885054	-2240.10572340000
3038.30391328688	-2225.88589350001
3038.13346879006	-2213.78891130001
3037.60780834765	-2200.71130050001
3036.84565573791	-2185.01395680001
3036.88140337144	-2172.29251560001
3035.95432273494	-2158.48240590001
3036.01535218027	-2154.44210700001
3035.89949601420	-2126.81884800001
3035.41666074758	-2129.72358810002
3035.78880916572	-2155.35818880001
3035.05702831361	-2177.58052560002
3035.24115148375	-2147.39425800001
3035.29604916566	-2117.22439530000
3034.95113423960	-2083.79474040000
3035.43921369592	-2044.87453980000
3034.95841318376	-2011.39352460001
3035.43299923030	-1978.09546650000
3035.77560528449	-1942.79703870000
3035.63585818158	-1907.81008050000
3036.23862398344	-1870.21411740001
3035.84596046765	-1840.29140100001
3036.16209295368	-1806.65165610001
3036.20434328737	-1769.90190870000
3035.86434141336	-1737.03466920001
3036.29881456182	-1704.04481760001
3035.71375643928	-1670.58700170001
3036.05786739149	-1643.21857740001
3036.16052083382	-1616.31914550001
3035.77317968597	-1584.84524970000
3036.37660241454	-1555.33033140000
3035.93232622172	-1530.18251370001
3036.39761549522	-1501.75081050001
3036.56055936320	-1474.16845200001
3036.38913046089	-1449.93081570001
3037.13876001548	-1421.18357520001
3036.81286651524	-1392.36660270001
3037.35782248579	-1367.46405390000
3037.64900070806	-1340.92691550000
3037.52945597458	-1315.16612670001
3038.37199977007	-1291.71950160001
3038.07180984246	-1263.14645700002
3038.60895925903	-1253.66893950001
3039.02102963625	-1246.58801250000
3038.89598175006	-1233.82267590001
3039.81391905042	-1228.06817670000
3039.45319215429	-1226.62119300000
3039.93136729909	-1225.82557770000
3040.25611316869	-1224.59324340001
3040.10137266759	-1228.49077050001
3040.73620002020	-1229.82341160001
3040.17345439054	-1229.40135420000
3040.37078713515	-1235.57058000001
3040.29986496387	-1238.45918340000
3039.77763301012	-1240.10481390001
3040.27995223323	-1246.20086580000
3039.61646976118	-1250.55540570001
3039.84293066259	-1254.49754340001
3039.84734022699	-1261.48299120001
3040.15636123719	-1265.28039030000
3040.03053019142	-1265.29831500002
3040.26107104528	-1269.64016010001
3039.57209181562	-1274.85986850001
3040.05458952382	-1276.98799080001
3039.66171619562	-1281.04970100001
3039.64259280128	-1286.37485670000
3040.01000855231	-1285.53753630001
3039.51886456785	-1287.32486580000
3040.13457619113	-1293.11758350001
3039.75108786695	-1295.73079020000
3039.55712161253	-1299.13026990001
3040.15324658518	-1309.39026090001
3040.67155031484	-1314.47363430001
3043.94683144552	-1319.08810470001
3049.19172108266	-1328.49392340001
3059.11114062914	-1333.60434030002
3074.65344986324	-1333.53031710001
3093.57935656999	-1339.57634970001
3115.80107299260	-1348.96898190001
3137.94067313044	-1355.84241150001
3160.40490402889	-1366.82841990001
3182.85986105490	-1375.22227530001
3203.45510743640	-1381.04310930001
3223.82613534712	-1391.50170240001
3241.74774220545	-1400.84391300001
3259.10009072704	-1406.01847440001
3277.44710535778	-1416.19724550001
3297.35268354132	-1426.94759550001
3322.21151611613	-1436.33231580001
3350.68078197775	-1447.94255970001
3383.57029876921	-1457.83449090001
3421.32575677289	-1462.53652860001
3462.31091175555	-1472.60667870001
3507.73398069432	-1483.17022740001
3555.34324743188	-1489.15895460001
3604.97627754567	-1496.86022820002
3655.60914046146	-1506.77799600001
3705.05279671945	-1514.30181060001
3755.30421810102	-1522.76200080001
3804.84922580091	-1533.81796470001
3855.12065900514	-1537.89254850001
3906.29099937897	-1544.04322380001
3956.70334338885	-1553.56101600002
4008.79341258275	-1557.64431630001
4061.18912038874	-1560.11354430001
4113.89164611376	-1567.07025000001
4166.75321017034	-1568.52478800001
4218.62574137595	-1565.95051500001
4271.46298207849	-1561.51305660001
4322.52490154731	-1540.83792090001
4370.50924743430	-1510.25082840001
4411.93640334826	-1500.84080790001
4441.36308779057	-1498.87785210001
4457.54221226518	-1475.81332260001
4458.17215170932	-1473.86288280001
4449.46714590861	-1547.18970150001
4441.71907705592	-1678.20473100001
4433.12359788574	-1759.90873200001
4425.53354988866	-1762.44040589999
4417.03840512087	-1747.40337060001
4408.57699250830	-1771.70358690001
4400.55513460415	-1765.09683750002
4391.47380494206	-1734.02072700001
4383.39473459083	-1710.86639520001
4374.52277620887	-1693.22670240001
4365.74697510633	-1684.31486340001
4357.38488038444	-1679.40751860001
4348.14769181106	-1678.35277740001
4339.88762460570	-1678.00402800001
4330.87779136424	-1682.67794940001
4322.00089214268	-1691.10886110001
4313.48157041491	-1695.42133830001
4304.15693189463	-1702.33826100001
4295.96232056924	-1712.30408130002
4287.04154145578	-1714.02123180001
4278.12830900514	-1715.07758220001
4269.81512880019	-1722.57547080001
4260.57585588326	-1726.74714300001
4252.51873988391	-1729.48206780001
4243.65347415599	-1737.41385930002
4234.99527935058	-1740.39753960001
4226.90170460835	-1741.13365920001
4218.72201842588	-1750.99693770001
4210.03621031498	-1755.16534680001
4202.01319160921	-1756.27377270001
4193.11593772396	-1762.21967730001
4185.24098570857	-1769.67286590001
4176.89966975370	-1774.26449460001
4168.53734935448	-1779.22226100001
4160.79975528639	-1782.32654190001
4152.23746929169	-1783.72694820001
4144.67983241935	-1788.63742200000
4136.65187546433	-1794.88849350002
4128.67676796845	-1798.06438380001
4121.33525537305	-1801.23374790001
4113.14831076140	-1807.84800690001
4106.08232748551	-1810.79668710001
4098.60877604468	-1815.12185910001
4091.15196523685	-1820.59903950001
4084.51109460710	-1822.74379020001
4076.99259255127	-1826.31326400001
4070.56389718628	-1833.71008590001
4063.52019643358	-1837.23919560001
4056.41988409617	-1842.59059020001
4050.15583272046	-1848.85502700001
4042.95156406587	-1851.21912060001
4036.80074328751	-1852.33358100001
4030.14291067012	-1859.78565210001
4023.42579747464	-1864.63515510001
4017.46216145991	-1867.86347850001
4010.60753784292	-1874.43098130001
4004.70103385780	-1876.84227810001
3998.29775871846	-1878.88748190001
3991.83244174994	-1883.40879750001
3986.11977361505	-1885.40456310001
3979.49045773055	-1883.00600580001
3973.88760547303	-1888.44286680001
3967.68102351338	-1889.72535450001
3961.42467580262	-1885.27310040001
3955.91321707828	-1885.86725280000
3949.41808920958	-1887.34905780001
3943.98664052246	-1884.79825230000
3938.14932953478	-1888.75786770000
3932.09996217531	-1894.80859380001
3926.80863515746	-1894.34474190000
3920.54376256422	-1896.69493380000
3915.33058397220	-1903.41960180000
3909.71595788794	-1906.09842810001
3903.81845700279	-1906.77947730000
3898.66208836509	-1912.74317250000
3892.55456504639	-1920.96023940001
3887.45386151631	-1930.91770080000
3881.91810521227	-1944.51494910000
3876.19770043704	-1956.47890410001
3871.22986685103	-1966.31580960001
3865.27029400408	-1979.11243620001
3860.33726543087	-1989.66905640001
3854.96306478449	-2000.87641920002
3849.38983556683	-2014.77744870000
3844.63780236355	-2022.13395120000
3838.83082222183	-2029.02204240001
3834.12753515162	-2038.36371660000
3828.90117901484	-2046.37838190000
3823.54417450020	-2051.47239390001
3818.98716309767	-2060.62109820000
3813.39101836523	-2065.56862830001
3808.80412983571	-2067.38903580000
3803.80982887553	-2074.03704330001
3798.57322520089	-2081.40253050002
3794.10975931012	-2080.43651880000
3788.70054590565	-2085.36996840000
3784.28481380118	-2092.09602210000
3779.45900629091	-2093.01961350001
3774.41681014850	-2099.04638040000
3770.11839884101	-2104.58690070000
3764.78672939050	-2105.87479710000
3760.37510753276	-2110.60959990000
3755.71731297832	-2118.27761670001
3750.70979278014	-2120.36045789999
3746.50161542269	-2124.46968420001
3741.26267758026	-2132.16621960000
3736.99733811286	-2136.81323160000
3732.39291298745	-2140.75362600000
3727.52108252118	-2144.15453610000
3723.48410135909	-2141.90715420001
3718.09865638614	-2140.04289600000
3713.24196450729	-2146.18248570000
3709.27258760375	-2151.21342600000
3704.26923822882	-2151.15160590000
3700.22414588994	-2154.37161510000
3696.14149742423	-2158.91908020000
3691.65403452265	-2160.27264089999
3688.18504860407	-2165.46785370000
3683.68599247006	-2169.71797439999
3680.12408175761	-2170.88567249999
3676.29743461805	-2175.17200020000
3672.19884168795	-2179.04114280000
3668.97556386285	-2182.41268500000
3664.72013095814	-2186.88380250000
3661.38564533457	-2189.34619140001
3657.84275349610	-2190.46847430000
3653.92571877249	-2195.36133630000
3650.93343591039	-2202.98197110000
3646.84341079760	-2205.26126880000
3643.70505710306	-2209.81664579999
3640.43021981987	-2203.31507550000
3636.86825225512	-2175.67009229999
3634.25678461440	-2150.56836030000
3630.50102335346	-2149.17836910000
3627.54527390880	-2146.29441450000
3624.36070582992	-2145.23520330000
3620.85840294542	-2151.33988230000
3618.27588289986	-2151.90100140000
3614.66387155321	-2154.47835870000
3611.80545571121	-2160.22266630000
3608.82032368823	-2161.68922860000
3605.31458741426	-2160.14363670000
3602.77973223003	-2163.83102910000
3599.13556837990	-2165.26585440000
3596.42769868380	-2168.92392360000
3593.50885023872	-2176.85960400000
3590.24805964245	-2181.63293820000
3587.89770811081	-2182.67543160000
3584.44958210566	-2186.16641220000
3581.85126336179	-2189.69069430000
3579.14564430315	-2189.11755090000
3575.81046437802	-2193.66126120001
3573.54849768033	-2199.39980250001
3570.17029459365	-2201.67865319999
3567.43652262397	-2204.85275550000
3564.73598142197	-2208.55530120000
3561.59034910472	-2206.67776710000
3559.44146595908	-2210.51025570000
3556.13136524622	-2215.12982190000
3553.64838940198	-2215.83532200000
3550.98415777251	-2217.17623260000
3547.88820983914	-2222.36491920000
3545.71956756046	-2222.94946110000
3542.43077468847	-2227.38674070000
3540.00063196511	-2256.91489020001
3537.44037223215	-2286.58013460001
3534.37159317301	-2301.41271210000
3532.23293679106	-2309.45969550001
3528.97506909324	-2312.50430190000
3526.44078392938	-2313.41631600000
3523.86473815363	-2319.66461610000
3520.80581045435	-2321.52105180000
3518.67789449710	-2324.75250420000
3515.36950940145	-2332.33469700000
3512.90474211142	-2335.25378579999
3510.15358391095	-2334.84504899999
3507.02767014913	-2344.14358769999
3504.82998519368	-2345.12350110000
3501.40950878578	-2339.74153170000
3498.80831077583	-2341.17582060000
3496.04659662026	-2344.81855770000
3492.71610271865	-2343.83180520000
3490.38517223476	-2348.25267990000
3486.93088920343	-2352.44482470000
3484.18390211859	-2350.37543820000
3481.36395311902	-2353.28612340000
3478.05623180697	-2358.69647730000
3475.65200739705	-2358.91497090000
3472.12596223801	-2361.43810710000
3469.36100772961	-2365.51961940000
3466.55007263087	-2365.15549319999
3463.22451513882	-2367.05354459999
3460.80088438122	-2372.93324849999
3457.29317368910	-2376.26706390000
3454.86326178084	-2378.53183409999
3452.15242110555	-2384.89546019999
3449.67858533346	-2388.68338289999
3446.49993087957	-2392.03364790000
3444.26380863567	-2398.98548130000
3441.14412966808	-2402.13003690000
3438.49433006709	-2405.23306619999
3436.13489554795	-2410.17491939999
3433.04070468839	-2413.07371440000
3430.75185264324	-2413.80867179999
3427.58829768307	-2418.07872870000
3425.16920093145	-2419.64184300000
3422.79683704774	-2419.94772510000
3419.52511653843	-2424.04550820000
3417.34025375440	-2428.08737160000
3414.31847935204	-2429.27804550000
3411.57247164171	-2434.58961240000
3409.09071591017	-2437.22892389999
3405.87918747857	-2436.43192289999
3403.68677263466	-2440.83862769999
3400.45320738432	-2443.89226350000
3397.58134890817	-2441.19685349999
3395.00404528218	-2442.62010150000
3391.65499482087	-2454.05731169999
3389.34781103951	-2457.11121569999
3386.11671954280	-2459.74565489999
3383.43578066098	-2465.30392110000
3380.82155779778	-2466.67947419999
3377.37748495956	-2468.93280119999
3375.27339286734	-2475.23764679999
3372.17562704973	-2475.71960219999
3369.16232203515	-2475.21140789999
3366.40919163440	-2479.69562250000
3363.08353619963	-2479.33431240000
3360.73619561973	-2478.75938099999
3357.39880450750	-2482.89328169999
3354.49513588005	-2484.69808890000
3351.95240542024	-2484.74506860000
3348.60978417792	-2490.68395530000
3346.39217905861	-2492.98587120000
3343.34955719548	-2491.90493580000
3340.66158106850	-2494.11606600000
3338.20984942480	-2493.84585450000
3335.04774096225	-2493.46273080000
3332.97646250682	-2497.50571170000
3329.97626624508	-2498.44731720000
3327.70746513981	-2495.44839420000
3325.75211676466	-2498.78422109999
3323.10206541806	-2501.90186730000
3321.54348902996	-2500.63998630000
3318.99241596336	-2504.84245680000
3316.73359063186	-2508.71799150000
3314.69734113390	-2507.39245769999
3311.81029008770	-2512.37874269999
3309.96373009528	-2518.47023519999
3307.11258929358	-2519.60329079999
3304.65501951006	-2517.79052699999
3302.56457345667	-2518.97941290000
3299.76486927525	-2515.68685560000
3298.04304866431	-2517.01922850001
3295.49391980989	-2521.36509660000
3293.22721239200	-2519.51281800000
3291.32655547025	-2517.02566530000
3288.82422499718	-2518.90673070000
3287.34124238020	-2516.48233680000
3285.11271683587	-2513.87471760000
3283.13022858095	-2519.23326420000
3281.68206150971	-2520.87366480000
3279.32608051889	-2519.01302730000
3278.07979942326	-2521.21539629999
3275.95514051532	-2523.13311570000
3274.10457994126	-2521.71889710000
3272.77463902925	-2527.78392719999
3270.63169334396	-2531.60600069999
3269.61098019028	-2535.64326000000
3267.81655616053	-2542.44101249999
3266.31789572638	-2549.00654850000
3265.44119939796	-2552.12732369999
3263.68675559301	-2557.63297800000
3262.96051817267	-2564.86199610000
3261.50081863585	-2566.65589649999
3260.34690425708	-2571.14319540000
3259.67600665640	-2575.39952940000
3259.05836099675	-2579.47809150000
3258.12609400772	-2585.34487709999
3257.30719714639	-2592.68086229999
3255.73891775564	-2591.76259020000
3255.29743747012	-2593.71575670000
3253.88823938439	-2598.07333619999
3253.04841326948	-2598.37805610000
3252.29156428273	-2598.51698370000
3250.94028286122	-2603.76051719999
3250.57065201694	-2603.91196079999
3249.20225376505	-2604.58929989999
3248.50011308770	-2607.82267440000
3247.83405147605	-2604.65903190000
3246.52102840739	-2607.33146610000
3246.14449765531	-2615.91431309999
3244.78805775494	-2618.51393100000
3243.98285798590	-2615.93737830000
3243.27931570061	-2620.09121520000
3241.96786947310	-2620.64361779999
3241.60120818434	-2616.79280219999
3240.29305680299	-2615.28332790000
3239.40190170689	-2605.46600100000
3238.68321672464	-2578.83910500000
3237.31931571473	-2543.48632200000
3236.84022570528	-2520.80111670001
3235.49565879179	-2511.65160780000
3234.70052395609	-2489.21515800000
3234.01520131111	-2476.25336490001
3232.58802886709	-2514.10273230001
3232.27410069175	-2635.71538500000
3231.00995464737	-2739.03965850001
3230.16717686377	-2745.64117800001
3229.63016273405	-2722.96397400001
3228.29373053202	-2740.69127880001
3228.01414479948	-2729.83338060001
3226.86137076284	-2691.86260800001
3226.13199542312	-2662.01686500002
3225.52549418654	-2634.90443760001
3224.24525047549	-2623.63243860001
3224.01761565904	-2612.62720920001
3222.65302877832	-2602.42371900001
3221.96854297936	-2600.64014430001
3221.41397553391	-2605.54462830001
3220.25328497572	-2608.43931090001
3219.93833950655	-2613.55933830001
3218.70879458276	-2624.54825220000
3217.89985943008	-2626.91869320001
3217.40826938337	-2621.34612300001
3216.10254721532	-2623.65429690001
3215.83724029042	-2625.46688190001
3214.67877273674	-2623.90810350001
3213.89453451470	-2629.48670820001
3213.48043683316	-2631.02125920001
3212.25021186015	-2629.54674030001
3211.99675021930	-2633.46348840001
3210.87146210928	-2637.43199910001
3210.19160497446	-2635.35099060001
3209.71132853785	-2637.60498810000
3208.43856131953	-2643.22873980000
3208.29447746323	-2643.46050930001
3207.12283294431	-2646.32265030001
3206.39570658191	-2651.27286240001
3205.94408521350	-2650.27994130000
3204.76496619998	-2651.80836840000
3204.76601937017	-2657.85659130000
3203.83946681592	-2660.57725680001
3203.41436320154	-2663.35925070001
3203.30045845215	-2668.62258630001
3202.47528929273	-2670.57785370001
3202.71665520672	-2670.09934020001
3202.14674830593	-2674.35992070001
3201.84793589699	-2675.72930520001
3201.87102004053	-2674.34494620000
3201.18307430874	-2676.90464700002
3201.47337872144	-2676.60622980001
3200.96486942283	-2674.43014440002
3200.79626287802	-2677.87964340002
3200.97157174774	-2678.13014220001
3200.31345355861	-2674.68019620001
3200.81700031318	-2674.82453250001
3200.34902028432	-2677.86019890002
3200.36525298708	-2678.80175970001
3200.66215431393	-2682.29233800001
3199.99929462638	-2684.66550570001
3199.64503999751	-2681.75817300001
3200.13693674499	-2683.52838240000
3199.56167224091	-2682.71850780001
3199.83023011952	-2675.79505890001
3199.78499837027	-2674.37350950001
3199.30159410232	-2674.45709850001
3199.70071824367	-2669.76471600000
3199.07982590275	-2668.31750880001
3199.20903238022	-2668.47708780000
3199.02365336236	-2664.84507870000
3198.41104689043	-2662.05673740000
3198.73007104417	-2664.01620660001
3197.94388018146	-2660.87978640001
3197.82742401095	-2655.94723080001
3197.57498612676	-2655.85514880001
3196.77781448887	-2652.66978210001
3197.05717506674	-2651.74578840001
3196.09083455917	-2654.51803770001
3195.82478766352	-2654.28059130001
3195.42048191555	-2653.67369940001
3194.49325622579	-2660.62226970001
3194.44871833237	-2667.30746760001
3193.29897305823	-2671.33480350000
3192.93819777869	-2680.38190470000
3192.41573447164	-2689.70364270000
3191.43871930429	-2695.44996180001
3191.39327427914	-2705.51345160000
3190.19730562857	-2713.27279050001
3189.76095779470	-2718.69539220001
3189.15770611393	-2725.84448670000
3188.01050868793	-2729.72328450000
3187.77651380076	-2731.65620190000
3186.46557444750	-2736.05714040000
3185.81556930179	-2740.69619580000
3185.10364588806	-2740.05551070001
3183.91216301799	-2744.68616250001
3183.69432483761	-2748.64238070000
3182.19120871676	-2748.77880510001
3181.37037632393	-2751.59941980001
3180.63757298549	-2754.53509230000
3179.27915580687	-2753.37083610001
3178.94215902743	-2755.17734190001
3177.37329297970	-2760.57164850001
3176.60651167798	-2758.28148870001
3175.78581167694	-2757.59748930001
3174.28260809449	-2761.41080160001
3173.72130580026	-2758.06053660001
3172.02602965252	-2752.24636290000
3170.96294629360	-2749.10542800001
3169.86544728525	-2740.26868500001
3168.10677918411	-2736.15717900001
3167.29797835415	-2731.84675800001
3165.33665659139	-2722.90975290001
3164.17712729725	-2714.70247530001
3162.98587165338	-2707.27342470001
3161.21848959848	-2697.86666730001
3160.52023145236	-2681.99423370000
3158.79282719130	-2669.71670820002
3157.70483843511	-2655.13476360001
3156.57571567811	-2637.45783570002
3154.97249407335	-2620.86573210001
3154.35546642870	-2600.65958880002
3152.55000003649	-2575.32474630000
3151.49742931504	-2549.86697880000
3150.46783183785	-2520.00916680000
3148.84474788025	-2487.18483930000
3148.21686065639	-2451.07403370001
3146.44976284740	-2416.30069680001
3145.35295038608	-2382.39610440001
3144.20936763150	-2349.60092130000
3142.49031907007	-2316.72746850000
3141.73502096080	-2279.57354370001
3139.91260789966	-2241.81853800001
3138.58026413431	-2199.86754330001
3137.32631050175	-2151.74996010001
3135.40310026032	-2104.66517040001
3134.45805110820	-2059.62384120001
3132.44735716671	-2001.77462100001
3131.15272125672	-1952.89861290001
3129.72001430636	-1905.86880420001
3127.76994099687	-1857.62820660002
3126.95366764341	-1813.99354170001
3124.97812148417	-1720.13583420001
3122.84032484287	-1636.95414060001
3121.97703310500	-1586.69708130000
3120.03041315996	-1523.48323530000
3119.08979925800	-1448.83575510001
3117.68763455031	-1374.64332090000
3116.06629873381	-1302.01261530000
3115.33652890010	-1216.09277850001
3113.49013204854	-1097.29323090001
3112.69810317521	-974.265108000014
3111.55554030794	-876.557791800015
3110.09589792017	-784.824630600011
3109.48859670935	-716.248706700009
3107.86526709013	-649.366510500004
3107.18464918457	-582.756492600007
3106.10491302104	-520.211358600007
3104.85018250715	-457.494755399995
3104.40580394258	-396.281726099998
3102.96787567636	-334.903709100001
3102.45007837284	-264.249190500002
3101.58797665600	-200.155469700006
3100.33259678602	-139.608559800004
3099.97317008425	-79.8055920000024
3098.46500641547	-20.8246572000044
3097.99105895410	32.4089303999953
3097.27117717624	83.9000225999899
3096.13185337315	134.090881199994
3095.94025812442	181.517044799997
3094.64689713008	218.838326399994
3094.29588215101	271.691963999999
3093.59874994177	315.891323999993
3092.60158899877	358.567442099997
3092.45490474084	401.982451199994
3091.28801191921	434.034362699994
3090.97728307361	479.877073500000
3090.34132935566	575.366509799994
3089.36982469233	737.843544899999
3089.31472561378	875.949558899994
3088.21409973875	991.570221299995
3088.13687264204	1108.34235569999
3087.74138756387	1221.17449800000
3087.11623070921	1280.51432909999
3087.43252663011	1342.47979349999
3086.64856623500	1411.71589169999
3086.83567633250	1494.73724639999
3086.69270726180	1594.12796459999
3086.21227510645	1700.27946839999
3086.61648945409	1801.21363289999
3085.99526868126	1910.25740549998
3086.24140988689	2033.47679969999
