0	5.81562033439751	0
11.4651999999987	5.76585515723968	-0.00109490099999998
32.8710199999987	6.09227274263808	0.0204438320000000
55.6596199999985	6.72943940327842	0.0421506620000000
36.6403199999986	7.23471855175472	0.0336453160000000
-77.5477400000000	7.20502127504216	-0.00333065499999996
-207.403150000000	7.13501834379469	-0.00269183900000003
-244.364810000001	7.40507242629836	0.0208082230000000
-218.477820000000	7.99838111681194	0.0420369760000000
-230.514090000001	8.47421746814480	0.0332130710000000
-230.676700000000	8.49171683434954	-0.000638667000000037
-188.113260000000	8.45614359177874	0.00399107700000001
-149.109060000001	8.73109779124057	0.0231307829999999
-123.320190000000	9.33610076372003	0.0464466490000000
-114.657670000001	9.81849303282804	0.0351921600000000
-100.427780000000	9.85657968748368	0.00250883899999999
-83.4977800000015	9.82033594442435	-0.000159667000000030
-78.2876700000015	10.1075976075553	0.0190773960000000
-81.3694100000012	10.7582638784735	0.0434918880000000
-85.7675600000002	11.2722493253531	0.0351011520000000
-89.2746300000017	11.2978135884824	0.00323857500000002
-92.9428300000000	11.2829476107757	-0.00234961899999997
-97.9625400000004	11.5129204915957	0.0227209480000000
-100.316570000001	12.1297330832804	0.0434918880000000
-100.511360000000	12.6355175394200	0.0348054489999999
-99.3110600000000	12.5984938436793	-0.000775537999999965
-98.2922500000004	12.6186940365753	-0.00346752500000003
-99.3944500000016	12.8815464320620	0.0191912900000000
-99.2747800000016	13.5423326722898	0.0407865500000000
-98.4354400000011	14.0329891601542	0.0330538220000000
-97.5840300000000	13.9315626788235	0.00257722999999999
-98.9635900000012	13.8882235670024	-0.000958031000000026
-100.112280000001	14.1359494076388	0.0197378770000000
-99.4573300000011	14.7622378671723	0.0417868969999999
-98.0230300000003	15.2484837310784	0.0337135580000000
-98.0412600000000	15.1953553235775	0.00417348200000001
-98.2210700000014	15.1444126212075	-0.000775537999999965
-97.8618100000003	15.3534679915299	0.0207854560000000
-96.3204500000011	15.9467100811806	0.0450602470000000
-97.1265200000016	16.4143026429447	0.0360565010000000
-100.061870000001	16.3873457633142	0.00358064599999997
-101.008060000000	16.2653229517127	0.000889551999999960
-99.6461800000016	16.5101883611365	0.0172096680000000
-100.130180000000	17.0838317666039	0.0430372630000000
-101.186340000000	17.5530210697003	0.0357380610000000
-101.558590000001	17.4736070995344	-0.000364957000000055
-99.4795000000013	17.3995242663320	0.00344380599999994
-97.3688900000016	17.6306250838966	0.0196239820000000
-97.6792300000016	18.1844184610058	0.0461966590000000
-99.4532700000000	18.5914767888353	0.0349646690000000
-98.6584000000003	18.4879095218431	-0.00442585500000003
-97.1892400000015	18.3770707446403	-0.000570246999999968
-97.0338100000008	18.6361354032977	0.0188268690000000
-97.9567600000009	19.1925340142113	0.0441056129999999
-97.6506900000004	19.6056087908952	0.0348736909999999
-95.2671900000005	19.4916373154211	-0.00100365400000002
-92.5884400000014	19.3930092577713	-0.000866784000000065
-91.8427400000001	19.5439541473098	0.0164579410000000
-90.7148600000000	20.0960397009343	0.0421051880000000
-89.9586600000002	20.5440584145053	0.0338273030000000
-86.6293000000005	20.4804450001848	0.000935174999999955
-83.8611600000004	20.3290328057738	-0.00540704100000000
-84.4886400000014	20.5237763440798	0.0190318620000000
-84.5596200000000	21.1017218416067	0.0409911549999999
-81.7414100000005	21.5178797549654	0.0341230360000000
-78.6974600000012	21.4716796629510	-0.00237241499999996
-76.9471300000005	21.3598941319117	-0.00203022500000005
-75.0327500000003	21.5776895556611	0.0183030199999999
-71.2445500000013	22.1567543108950	0.0398543259999999
-66.3138200000012	22.5702779373112	0.0301641730000000
-63.6440100000000	22.5583965758464	-0.00380977500000002
-61.8241700000017	22.4880425106870	-0.00431178200000004
-58.3066300000010	22.6695357310171	0.0203299969999999
-55.7610900000000	23.2516713599903	0.0401953840000000
-55.6313600000012	23.6959057875499	0.0307330790000000
-58.0186900000008	23.6572678561171	-0.00433457800000003
-57.8015700000015	23.5626123288699	-0.00333065499999996
-55.8965800000005	23.7571410848886	0.0132911240000000
-57.0794600000008	24.3324693064134	0.0400589610000000
-61.0860500000017	24.7668388787877	0.0332130710000000
-65.5385100000003	24.7224480435055	-0.000821161000000070
-68.5096200000007	24.6391627517057	-0.00668500200000000
-72.0385900000001	24.8880571480857	0.0163668430000000
-79.1446700000015	25.5270459606219	0.0419460570000000
-89.6258300000009	26.0055202363038	0.0312564220000000
-98.3174200000012	25.9973753402834	0.000501827999999982
-101.911870000000	25.9160395610714	-0.00387822500000001
-107.410320000001	26.1183590023448	0.0180752310000000
-113.529870000000	26.7065457067368	0.0421961070000000
-120.049940000001	27.1442009659204	0.0312564220000000
-122.746810000001	27.0914791434898	0.00296492400000004
-124.341610000001	26.9256139559967	-0.000935234000000063
-128.451890000000	27.1079869335753	0.0158428740000000
-132.305380000002	27.6480071681509	0.0425825790000000
-134.407080000001	28.0867240782980	0.0334860670000000
-134.151740000001	28.0494384410181	0.00136852300000001
-133.598920000000	27.9332071964109	-0.00237241499999996
-134.907420000001	28.1380066969951	0.0168907810000000
-137.994520000000	28.7327434132933	0.0423097929999999
-140.291110000000	29.2328926348051	0.0330083180000000
-140.421530000001	29.2105324549278	0.00116326199999994
-142.548030000000	29.1331492756828	-0.00143709100000000
-146.581210000000	29.3199193077649	0.0206943580000000
-148.114100000001	29.8929516779371	0.0467420829999999
-148.516750000001	30.3496069514186	0.0361474790000000
-150.625370000002	30.3480589625757	0.00378584699999995
-153.470430000001	30.2277994388715	-0.00109490099999998
-154.548040000002	30.4159365584785	0.0178019080000000
-152.508950000001	31.0128272177254	0.0435600700000000
-152.665080000001	31.4885211540540	0.0336225489999999
-153.615080000001	31.4707906408474	0.00100359500000002
-153.134010000002	31.3884486685620	-0.00654807199999996
-151.752900000001	31.5712959041030	0.0166401960000000
-149.860650000001	32.1219981674769	0.0405137040000000
-151.722970000001	32.5990166797037	0.0338500400000000
-153.697270000001	32.5976662650913	0.00218956500000000
-154.001360000000	32.4646029472989	-0.00307968199999997
-151.938130000000	32.6492045073245	0.0183030199999999
-151.260150000000	33.1825507648494	0.0443329250000000
-152.630330000000	33.6572622620495	0.0381260910000000
-152.467300000000	33.6105148277446	0.00337538500000001
-150.244040000001	33.4934027010613	-0.000296536999999986
-148.134550000001	33.7321440540242	0.0173007960000000
-149.132830000000	34.3268913490501	0.0430827080000000
-152.438960000001	34.8134141728758	0.0354196210000000
-151.700420000001	34.8010625587596	0.00494875100000003
-148.568410000002	34.7015087601121	-0.00296560899999998
-147.716550000001	34.9321101451146	0.0175741490000000
-150.221220000001	35.5320430816838	0.0448557020000000
-150.787910000001	35.9544868841406	0.0368752780000000
-149.463580000001	35.9389441961288	0.00405949799999994
-146.791760000000	35.7910356763066	-0.000250884000000062
-148.369570000001	35.9355541609547	0.0174146900000000
-150.248210000002	36.4920681006354	0.0419687950000000
-150.145970000001	36.9288342731246	0.0371482140000000
-147.978810000001	36.9101748639401	0.00533635599999993
-148.089790000000	36.7906411000165	-0.00344472900000004
-149.660000000002	36.9589747722707	0.0177107800000000
-150.195860000002	37.4529107659490	0.0409911549999999
-149.415740000000	37.8896661319076	0.0371709510000000
-148.788720000000	37.8966503681751	0.00248604200000002
-147.403370000000	37.7972370606595	-0.00221271899999997
-148.323200000001	37.9859480310049	0.0214913520000000
-147.883250000001	38.5124491981551	0.0452648220000000
-147.052400000001	38.9383700613332	0.0381488580000000
-148.032120000002	38.9290572972476	0.00497154799999999
-150.454990000000	38.7894255709942	-0.000843986999999991
-149.699230000000	38.9175720730705	0.0211497870000000
-148.371770000002	39.4625484740161	0.0458102760000000
-148.037760000001	39.8390047055922	0.0340775310000000
-150.438500000000	39.7367946420353	0.00494875100000003
-149.985810000000	39.6136249094969	-0.00387822500000001
-146.535540000001	39.7448396317049	0.0155922880000000
-144.953060000002	40.2567177718120	0.0430827080000000
-146.497340000002	40.6830604598558	0.0351921600000000
-147.062470000001	40.6793084573908	0.00490315799999996
-144.830500000000	40.5541277732167	-0.00182490499999999
-142.034200000000	40.6495012148892	0.0173463600000000
-142.177580000001	41.2082247957514	0.0390812020000000
-144.463770000000	41.5509689822184	0.0353513799999999
-145.139640000001	41.5823213334029	0.00677267299999995
-142.130210000001	41.4370914816039	-0.000319334000000060
-141.199560000001	41.5630697709691	0.0188724030000000
-141.968860000001	42.1150798729652	0.0414231620000000
-142.990480000000	42.4951515033012	0.0348054489999999
-141.243610000001	42.5067081412960	0.00586077200000001
-138.870040000002	42.3694363587803	-0.00282870899999999
-139.496740000001	42.4886440121039	0.0149999300000000
-142.809020000001	42.9906016835077	0.0428099210000000
-141.058790000001	43.3981758130444	0.0316659590000000
-140.304040000001	43.3483142298658	-0.000182463000000022
-137.896950000000	43.1791671249574	-0.00159678800000007
-139.247560000002	43.3062633146667	0.0153416730000000
-140.317240000000	43.8385764007467	0.0407410760000000
-138.478280000001	44.2153682862044	0.0351239190000000
-136.064490000001	44.1802254884425	0.00652190799999997
-136.177360000002	43.9925723029453	-0.00157396200000004
-137.346050000000	44.1203713444839	0.0131088090000000
-137.455340000000	44.6973623174581	0.0440146940000000
-134.970700000002	45.1044282945951	0.0297090719999999
-134.953270000000	45.0643295628109	0.00900666900000002
-138.015890000001	44.8624884976521	-0.00276025899999999
-138.863190000000	45.2838134649281	0.0152961090000000
-137.055520000002	45.2360840503299	0.0437192000000000
-136.881640000001	45.0670152102381	0.0323485219999999
-135.767280000000	45.1692350343462	0.00784412199999995
-135.113320000000	45.6709792530652	-0.00207584900000002
-132.865140000002	46.1076857278821	0.0149999300000000
-131.939630000001	46.0705541050832	0.0405364410000000
-135.331920000001	45.9548372254016	0.0343277599999999
-137.431030000002	46.1651968266052	0.00389989000000002
-135.862070000001	46.7302640956319	-0.00406077800000004
-133.014240000000	47.1738775158508	0.0156606189999999
-133.676470000000	47.2072587526565	0.0426962350000000
-136.495260000002	47.1088895505997	0.0324167630000000
-137.729880000001	47.3027047544003	0.00501717099999999
-135.877960000002	47.8489074553595	-0.00515603799999997
-134.939490000001	48.3412328400281	0.0158428740000000
-135.813600000001	48.3819552084707	0.0458102760000000
-136.385090000002	48.2974152681436	0.0345779880000000
-135.259110000001	48.5323219037000	0.00483476699999996
-130.178510000002	49.1661256961394	-0.00595473000000002
-128.186900000001	49.6670982780851	0.0355560739999999
-129.684140000001	49.7318568778113	0.00435591499999999
-129.868530000002	49.6490774632404	-0.00374132500000002
-126.667560000002	49.9430947087357	0.0143164430000000
-124.424970000000	50.5801917641560	0.0409684180000000
-125.853140000001	51.1202568762079	0.0367160880000000
-128.879780000001	51.1813871167776	0.00519957500000001
-128.847380000001	51.1377426626188	-4.56229999999946e-05
-126.308650000001	51.3833151583200	0.0216735470000000
-126.577970000000	52.0089780895569	0.0453557410000000
-128.176890000001	52.4847772520342	0.0373528780000000
-129.175940000001	52.5377149272393	0.0100779089999999
-129.694470000000	52.4964979635488	0.00130010299999994
-128.790860000001	52.7031608585718	0.0207626890000000
-128.435500000001	53.3129185466410	0.0442874510000000
-128.069410000000	53.8918420043959	0.0407865500000000
-126.965550000001	53.9891141761355	0.0107616340000000
-126.309580000001	53.9723137511681	0.00241759200000002
-126.111340000001	54.2418802398056	0.0236999580000000
-124.446050000000	54.8515448839152	0.0503322039999999
-124.450300000000	55.3618510750298	0.0415822920000000
-124.516680000001	55.4349482190455	0.0125847510000000
-125.589490000000	55.3475071184393	0.00275966299999997
-128.212490000002	55.5648105375589	0.0278656610000000
-128.114600000001	56.1370885666383	0.0507865900000000
-125.744390000002	56.5698361225244	0.0444238440000000
-123.326790000001	56.6074464107307	0.0125847510000000
-123.208560000001	56.5430718706508	0.00560994699999995
-125.216720000000	56.6959089659182	0.0248838120000000
-123.622490000002	57.2479777806655	0.0502640520000000
-122.228080000001	57.6390602571543	0.0403772809999999
-124.371680000000	57.6199849535668	0.0122657160000000
-127.717920000001	57.4141764836775	0.00599755199999996
-129.537660000000	57.4835161423471	0.0225160150000000
-128.314900000001	57.9719057133761	0.0494234020000000
-127.056600000002	58.3045355454238	0.0474692860000000
-128.019890000001	58.2331875214940	0.0154555669999999
-128.860030000002	57.9933307948470	0.00786691900000003
-128.313130000000	58.0386667310887	0.0269552500000000
-126.943080000001	58.5116881340466	0.0496733320000000
-128.881050000000	58.8306831704578	0.0431509190000000
-132.469570000001	58.7600735853074	0.0140885940000000
-133.605630000000	58.5308821186486	0.00339821200000001
-132.880370000001	58.5988008550297	0.0236999580000000
-131.609330000001	59.1396409616391	0.0474011040000000
-133.537470000001	59.5410116466997	0.0381943330000000
-134.940610000001	59.5561623082865	0.0119238830000000
-133.320240000001	59.3937717405257	0.00513115499999994
-130.786870000000	59.6108757771364	0.0196012150000000
-131.756640000001	60.2122469965407	0.0462421040000000
-132.828550000000	60.7490585256164	0.0356015780000000
-134.363780000002	60.8247668320085	0.00832282500000003
-129.175460000000	60.7755112290259	-0.00412922800000004
-123.968130000001	61.0352607712552	0.0141797220000000
-122.385090000002	61.7523164906704	0.0421279250000000
-123.534550000000	62.3701501497198	0.0318252390000000
-122.447230000002	62.5258598537440	0.00494875100000003
-121.738290000001	62.5974732096956	-0.00629703900000000
-122.029290000000	62.8909073208627	0.0126758790000000
-121.628120000001	63.6404491379698	0.0411957900000000
-117.946850000000	64.2470940759017	0.0310061040000000
-118.158510000001	64.4104136956752	0.00508556199999999
-118.340440000000	64.4222941263482	-0.00549831700000003
-123.209840000001	64.6674753680399	0.0142708790000000
-125.639070000001	65.4091765371806	0.0458102760000000
-125.747690000000	65.9163068442844	0.0366023420000000
-128.758470000001	66.0266086990827	0.0109211520000000
-131.803210000000	66.0429993536503	-0.000912408000000031
-133.460690000002	66.2701353227596	0.0243602010000000
-133.515680000000	66.9053101311550	0.0500141520000000
-135.798290000001	67.4462045807975	0.0458102760000000
-138.421510000000	67.5622526282034	0.0151594180000000
-142.583530000002	67.4732613378388	0.00684109300000002
-145.970900000000	67.6619962078341	0.0274332370000000
-147.266090000001	68.2674597349596	0.0579635530000000
-151.091970000001	68.7851811137651	0.0514681090000000
-155.524430000001	68.8920780806555	0.0207626890000000
-157.239350000002	68.8271247589035	0.0151821850000000
-155.151860000000	68.9820825826458	0.0299821560000000
-154.334300000000	69.5644852206686	0.0604381810000000
-154.166900000000	70.0421463555889	0.0510364900000000
-154.937760000001	70.0645757341198	0.0215824500000000
-153.682370000000	69.9525776842378	0.0115136900000000
-153.599000000000	70.0879880747781	0.0270690550000000
-154.048910000001	70.6611542171471	0.0602111960000000
-156.213960000001	71.0845831988127	0.0446966010000000
-155.245540000002	71.1044097401377	0.0183257870000000
-153.589640000000	70.9593718020158	0.0120834009999999
-153.661380000001	71.0936352708729	0.0261358170000000
-183.716270000001	71.6738328952819	0.0533762150000000
-154.377710000001	72.0834775372376	0.0471965880000000
-151.066560000001	72.1093542916616	0.0189635310000000
-145.899690000000	71.9385436749972	0.00531355899999997
-137.227000000001	72.0478158015357	0.0238138230000000
-116.446650000002	72.6021149589490	0.0516271500000000
-81.5540600000004	73.0152402242109	0.0458784580000000
-49.6814000000013	73.0087121212511	0.0185763430000000
-41.8814700000003	72.8674713081652	0.00713745099999996
-26.2780500000008	72.9969704861022	0.0217873820000000
-5.42372000000069	73.5495813954422	0.0503094970000000
-21.7336300000006	73.9702320729797	0.0434236760000000
-132.201640000001	73.9931071422620	0.0131544030000000
-251.245120000001	73.8873749002961	0.00419630800000004
-286.514990000002	74.0764858537971	0.0206715610000000
-258.620410000001	74.6349219753939	0.0498778180000000
-258.321150000002	75.0583196153462	0.0399907490000000
-271.491110000001	75.1191441982144	0.0131544030000000
-237.766310000001	75.0328294795440	0.00216673800000000
-202.501360000000	75.1541890981612	0.0207626890000000
-171.865780000000	75.7310633566650	0.0505139820000000
-157.066280000001	76.1998060557532	0.0392403620000000
-148.718110000002	76.2765730866948	0.0137240250000000
-135.780820000000	76.1559048147561	0.000615841000000006
-127.020070000000	76.2594295617229	0.0192595910000000
-122.632550000000	76.8471744150679	0.0489462490000000
-124.024960000001	77.2687999664523	0.0396269240000000
-130.458410000001	77.3090701054410	0.0117188010000000
-136.444640000002	77.1485398898215	0.00273686699999998
-140.532680000000	77.2437787785020	0.0207626890000000
-143.054440000002	77.7677214873344	0.0489916940000000
-147.185170000001	78.1699956603521	0.0402863320000000
-149.253220000001	78.1543569039971	0.0138379789999999
-150.091790000000	77.9585306957026	0.00526796600000001
-149.611050000001	78.0534551114816	0.0249065790000000
-149.725930000001	78.5593553776129	0.0495597360000000
-149.461760000000	78.9613582277005	0.0406501270000000
-148.737850000001	78.9656190558757	0.0165490680000000
-147.486030000000	78.7961635302844	0.00674990600000003
-148.621410000002	78.9026611343995	0.0205804940000000
-149.059700000002	79.4657457420322	0.0509683380000000
-149.085190000002	79.8702602613198	0.0438555930000000
-148.373340000000	79.8729351323643	0.0178019080000000
-147.940880000000	79.7364468095832	0.00465233300000001
-147.621050000002	79.8214661214383	0.0195784480000000
-146.130310000000	80.3338599254777	0.0518770210000000
-143.604540000000	80.7518950699042	0.0409002360000000
-142.036920000000	80.8190045017415	0.0155467250000000
-143.042220000001	80.6353421795416	0.00216673800000000
-143.868510000000	80.8069212746804	0.0191912900000000
-141.491810000001	81.3281027178194	0.0477873980000000
-138.625650000000	81.7416090146862	0.0397633770000000
-137.658130000002	81.8007805019418	0.0119694770000000
-140.678960000001	81.6957304052363	-4.56229999999946e-05
-140.068360000001	81.8270958557643	0.0193051550000000
-136.625790000000	82.3978720878412	0.0467193459999999
-133.548870000001	82.8455357365281	0.0398770629999999
-135.044090000001	82.9026343138771	0.0134278449999999
-135.929830000001	82.8112471480672	0.00184746400000002
-134.026060000000	82.9504148298249	0.0202161319999999
-129.185280000002	83.5248605569149	0.0506729929999999
-128.112710000001	84.0136905983351	0.0401953840000000
-130.636700000001	84.1064772309734	0.0134734089999999
-127.815910000001	83.9583919717468	0.00419630800000004
-122.656410000001	84.1110876132873	0.0189407640000000
-118.515410000000	84.7184096975004	0.0474465490000000
-117.691590000000	85.2015324728039	0.0412412639999999
-115.729050000000	85.2804219146705	0.0179158020000000
-110.558820000000	85.1406925542567	0.00120885599999998
-104.636300000000	85.2497939359532	0.0248610450000000
-102.129310000000	85.8351941298533	0.0481964290000000
-100.156700000001	86.3049601211208	0.0411048410000000
-95.8824900000000	86.3640124992062	0.0175513520000000
-91.3914900000000	86.2485948707316	0.00661309599999993
-87.2833400000000	86.3549299559483	0.0223566460000000
-83.9333000000006	86.9300746454724	0.0516725650000000
-79.7920700000013	87.3561928841030	0.0435600700000000
-75.1964700000008	87.3798185676475	0.0175969160000000
-71.0599400000010	87.2074839707519	0.00770737099999996
-68.3947100000005	87.3175732522515	0.0230624819999999
-65.8137300000017	87.8381767692898	0.0521041839999999
-62.0229500000005	88.2712339130668	0.0464920930000000
-60.3151900000012	88.3195684761606	0.0201705690000000
-61.2509900000005	88.2276487237664	0.00412788799999997
-63.1165500000006	88.3437292887433	0.0241552979999999
-62.1608700000015	88.9057308497575	0.0544891450000000
-60.8873700000004	89.3507834566612	0.0463102850000000
-64.4260500000000	89.3636201866789	0.0194418159999999
-70.1159200000002	89.2116434149529	0.00488036100000000
-76.9179200000017	89.2634381606243	0.0214458180000000
-80.9422700000014	89.7907705611554	0.0532172330000000
-86.3353300000017	90.1800775372264	0.0456057310000000
-94.5064900000016	90.2161292714284	0.0183030199999999
-102.711630000002	90.0822017388628	0.00668151600000000
-108.247500000001	90.1403635519535	0.0214458180000000
-111.611410000001	90.6600534721158	0.0527174920000000
-114.949830000001	91.0427562101563	0.0428781330000000
-121.712950000001	91.0602527763016	0.0161162270000000
-125.011590000000	90.8448614956628	0.00305614099999996
-125.626890000001	90.8758365106884	0.0218557130000000
-126.923860000001	91.3527890348928	0.0492416540000000
-129.325820000000	91.7313746970222	0.0434918880000000
-131.317660000001	91.7047753220909	0.0179158020000000
-132.347550000000	91.4244711925432	0.00857355999999998
-131.913070000001	91.4550239580985	0.0224249470000000
-133.690120000001	91.8988253621377	0.0521723359999999
-136.674970000000	92.2910537283913	0.0444692890000000
-134.963860000002	92.2975739134220	0.0157289800000000
-133.628000000001	92.0797771033489	0.00474354999999993
-134.110550000001	92.0854579152528	0.0183030199999999
-135.418020000001	92.5730248778644	0.0500141520000000
-136.223970000001	92.9349209904475	0.0409002360000000
-137.761430000000	92.9042915427327	0.0174146900000000
-136.680140000000	92.6819009179999	0.00608874000000004
-137.209620000001	92.7263973254368	0.0188724030000000
-136.666970000000	93.1612285207907	0.0496506250000000
-137.335230000001	93.4814044508720	0.0406046529999999
-137.474260000001	93.4842690308447	0.0163212790000000
-137.677870000001	93.2351110833118	0.000798335000000039
-138.208460000002	93.2392740726775	0.0171869010000000
-136.751470000001	93.6588453375684	0.0469238909999999
-134.824010000000	94.0142782193653	0.0404454930000000
-135.634870000002	93.9949661787604	0.0134961760000000
-139.339610000001	93.7541135529572	-0.00342190200000003
-140.177070000002	93.6947776216808	0.0172552320000000
-138.308840000002	94.1316228499623	0.0448102270000000
-136.874650000002	94.5025879791774	0.0414458990000000
-138.587550000000	94.4940178538703	0.0157973100000000
-141.698680000001	94.2036690771168	0.000843928999999966
-139.217160000000	94.2057552007211	0.0157061829999999
-132.586590000001	94.6515527355301	0.0478328720000000
-128.444030000001	94.9270649334592	0.0395359749999999
-129.272320000000	94.8743709161520	0.0134278449999999
-129.113860000001	94.5765695543564	0.000638668000000009
-126.715270000001	94.5261184861111	0.0183941180000000
-123.718140000001	94.9264500730080	0.0444238440000000
-124.900460000001	95.2200421009321	0.0368525410000000
-127.352480000001	95.1235431404974	0.0157517470000000
-127.056350000001	94.8473648211557	-0.00104927799999999
-125.529400000001	94.7702577602738	0.0157973100000000
-123.308930000001	95.0311415312852	0.0434918880000000
-123.386940000000	94.7723040374520	0.0392858370000000
-122.713310000001	94.6598276591597	0.0143620070000000
-120.643480000001	95.0509592206173	-0.000410580000000049
-119.418040000000	95.4356581494394	0.0116504410000000
-120.611080000001	95.5719901921224	0.0447193080000000
-121.771950000000	95.3326742853816	0.0404000180000000
-120.585170000000	95.1866552611681	0.0151594180000000
-119.542100000001	95.5352038635858	-0.00362725200000003
-120.265570000001	95.9053928928047	0.0158200770000000
-120.815390000002	96.0542100153279	0.0454011850000000
-121.023920000001	95.8212174697110	0.0341230360000000
-118.757630000000	95.6801341929627	0.0122884830000000
-117.750990000000	96.0537129838883	-0.00406077800000004
-120.252410000001	96.4287459442980	0.0123796700000000
-119.884980000001	96.5400599383088	0.0424234489999999
-119.520010000000	96.2572649499009	0.0353741170000000
-118.467100000002	96.0637907559657	0.00941692199999999
-120.732500000000	96.4299314984121	-0.00257776500000007
-121.776480000000	96.8128921422393	0.0106476799999999
-119.644740000002	96.8716712552122	0.0331675670000000
-118.575960000000	96.5284927689345	-0.00143709100000000
-121.647980000002	96.3521277673328	0.00827723100000000
-124.393010000002	96.6844632925534	0.0418323710000000
-124.809620000000	96.9931127816447	0.0414686360000000
-121.776060000000	97.1235070207396	0.0249748800000000
-120.082080000000	96.8211165913793	-4.56229999999946e-05
-122.325060000001	96.6258925739095	0.00613433299999999
-126.053190000001	96.9865371269163	0.0390812020000000
-125.583990000001	97.3531023546163	0.0405819159999999
-124.141460000001	97.4375177638092	0.0258854100000000
-123.883470000001	97.0895028880576	0.000456204000000016
-125.693300000001	96.8693203378547	0.00654470500000004
-126.117430000000	97.1604495565299	0.0408320249999999
-122.641940000001	97.4972477911793	0.0409911549999999
-121.369480000001	97.6014538518604	0.0234723179999999
-123.454220000001	97.2725419177623	-0.00278308500000002
-125.112300000001	97.1025277465057	0.00312456100000003
-124.058650000001	97.4265081748255	0.0404000180000000
-122.829560000000	97.7974313236701	0.0415822920000000
-125.859920000001	97.8329127678120	0.0200339370000000
-127.590640000000	97.4315262891310	-0.00675345199999999
-127.627000000000	97.2358040183583	0.00431032200000003
-124.836530000001	97.4826823771398	0.0381943330000000
-124.574070000001	97.8063961658769	0.0366705840000000
-125.700440000001	97.8415137209052	0.0248382779999999
-128.407630000002	97.4760572116970	-0.00399232800000005
-127.660400000001	97.2747507326611	0.00310176399999995
-125.834560000001	97.4781862262641	0.0401271719999999
-125.693240000001	97.7302609513394	0.0405819159999999
-126.094350000001	97.7108978966797	0.0218329460000000
-125.903190000001	97.2807077041974	-0.00698168799999999
-126.094430000001	97.0001699589716	0.00148253700000001
-127.101010000000	97.2356920471585	0.0355333369999999
-129.220170000001	97.4917846155185	0.0386263990000000
-129.132040000000	97.4549033820803	0.0231763170000000
-126.290840000001	97.0280920215679	-0.00568087000000006
-127.067430000001	96.7584511767821	0.00485756400000004
-130.668170000001	96.9532766321824	0.0377622370000000
-129.484440000000	97.1851619372665	0.0409456810000000
-126.638320000000	97.1685268331262	0.0186446440000000
-125.852430000001	96.6639876448048	-0.0104739780000001
-127.207660000000	96.3490539890823	0.00317015499999995
-130.943170000000	96.5612862941510	0.0326442840000000
-130.389270000002	96.8153093511307	0.0378077410000000
-127.858730000000	96.7845607786289	0.0186218770000000
-127.583540000001	96.3313384265491	-0.00807721500000003
-128.848030000001	96.0001207752091	0.00280528699999993
-128.625130000000	96.1364089938043	0.0297545760000000
-125.873330000000	96.3269842623991	0.0330310550000000
-124.415370000001	96.2106260378742	0.0149771630000000
-126.028970000001	95.7088214655939	-0.0124145360000000
-127.339280000000	95.3555375579110	-0.00250931500000007
-127.871140000001	95.4859230119045	0.0318479760000000
-126.387250000002	95.6293002543781	0.0332585460000000
-125.932590000000	95.5365658514265	0.0137695879999999
-126.839480000001	94.9888146749285	-0.0122318930000001
-126.286920000000	94.5794622260748	-0.00182490499999999
-124.579760000001	94.6779751301823	0.0290946310000000
-124.173590000000	94.8035637796259	0.0315977180000000
-125.315830000001	94.6783580345835	0.0150682900000000
-126.303400000001	94.1286373279618	-0.0174614180000000
-125.651610000001	93.7039667266599	-0.00490503399999998
-124.764910000002	93.7667505558709	0.0301869400000000
-126.508370000001	93.8403089015452	0.0330083180000000
-127.929760000001	93.6166074560335	0.0140658270000000
-127.499230000001	92.9783560056507	-0.0141042100000001
-124.991260000001	92.4952426310192	-0.00604600600000005
-125.190560000001	92.4493044713522	0.0250659180000000
-126.712300000001	92.4591883136474	0.0287077410000000
-126.274620000000	92.1811070571981	0.00827723100000000
-124.708260000001	91.5155788306095	-0.0174385610000000
-123.989640000002	91.0076803965440	-0.00762071300000000
-126.970160000001	90.9856222727028	0.0245651040000000
-127.639700000002	90.9868585302969	0.0254529270000000
-125.168840000000	90.6912341561071	0.00973601699999993
-124.351430000001	90.0105640597960	-0.0206138710000000
-125.286930000000	89.4958010634032	-0.0114784670000000
-128.230800000001	89.4313723072066	0.0223110830000000
-129.422880000000	89.3927423017283	0.0241325310000000
-128.543340000000	89.0935681506455	0.00743380999999999
-128.754930000001	88.3860181457999	-0.0208880290000000
-131.935040000000	87.8293884167138	-0.0126428610000000
-134.956690000001	87.7684370289314	0.0197834110000000
-132.138730000001	87.7274647693038	0.0205121630000000
-128.339830000001	87.4574334523939	0.000707087999999967
-124.612010000001	86.7206933956310	-0.0269668160000001
-122.308100000000	86.1486844736146	-0.0167305200000000
-120.129350000001	86.0690232928642	0.0123340760000000
-116.548810000000	86.0155439863318	0.0160478960000000
-115.117000000000	85.6772191210821	-0.00314813199999997
-116.276450000001	84.9428656216107	-0.0290242190000000
-116.306780000001	84.3770094979445	-0.0186263490000000
-113.900060000000	84.2422719077599	0.0136784610000000
-111.563970000001	84.1844652708463	0.0152277479999999
-111.004480000001	83.8596138650297	-0.00456275500000003
-115.069870000001	83.1126438934125	-0.0302816790000000
-116.760580000000	82.4978763393871	-0.0193345090000000
-116.655690000001	82.3849305346982	0.0106020870000000
-118.952310000001	82.3464613468592	0.0123112790000000
-121.749340000000	82.0080534118739	-0.00506476099999997
-123.238670000001	81.2715394150819	-0.0323396180000001
-122.773500000001	80.6589689485925	-0.0223960440000001
-123.674580000001	80.5639512455808	0.0105565230000000
-127.419700000000	80.5115683501436	0.0118783190000000
-130.320440000001	80.1897254333846	-0.00339910500000007
-131.336850000002	79.4227522439964	-0.0345579700000001
-137.258410000000	78.8099976877861	-0.0236985310000000
-142.317930000001	78.6669284597033	0.00902943599999995
-146.611520000000	78.5898783579717	0.0107616340000000
-146.268830000001	78.3015898059135	-0.00823697200000007
-144.827180000000	77.5633508300837	-0.0346951980000000
-144.562270000000	76.9514667716181	-0.0235842790000000
-146.310410000000	76.8185106377535	0.00506276500000003
-147.577810000001	76.7005935290816	0.0101690670000000
-146.815160000000	76.3170413799973	-0.00764354000000000
-145.404580000000	75.5192404186835	-0.0358388520000000
-146.991590000001	74.8737092837213	-0.0271496970000000
-148.381690000000	74.7520975209917	0.00620275299999995
-146.541770000002	74.7108074779486	0.0111490599999999
-144.409060000000	74.3599632460892	-0.00885325999999997
-145.599130000001	73.6113211293345	-0.0354499950000000
-147.381020000001	72.9678101703133	-0.0273096920000000
-148.153370000000	72.7945141543926	0.00709185800000001
-144.951890000000	72.6733056774127	0.00991836199999996
-142.204780000000	72.2946714031642	-0.00805435900000007
-137.932280000001	71.4519887273548	-0.0377832840000000
-128.342500000001	70.7637892620445	-0.0276297110000000
-104.096260000000	70.5867588015651	0.00358064599999997
-66.7593900000011	70.4844016144775	0.00795810600000002
-41.5348900000008	70.0896540357580	-0.00613728300000005
-32.9416900000015	69.2500735084264	-0.0361819660000000
-10.4228800000001	68.5258572059090	-0.0278811910000000
4.86146000000008	68.2883687028567	0.00394548399999994
-33.9313700000002	68.1270986195285	0.00492595399999996
-156.757060000000	67.7543359428593	-0.0128026770000000
-255.904050000001	66.9288263539687	-0.0404831100000000
-265.706690000001	66.2697589414812	-0.0304645890000000
-242.210520000001	66.0180512146545	0.00435591499999999
-258.122530000001	65.8610815962133	0.00969045299999993
-254.518740000001	65.4449914916967	-0.0109533660000000
-217.725660000000	64.5826712282427	-0.0375316260000000
-182.962620000000	63.8701088579407	-0.0306475000000001
-154.426300000001	63.6380846886615	0.000593045000000014
-142.546980000001	63.4737138253337	0.00403670099999998
-132.998540000001	63.0255524859333	-0.0131451950000000
-121.605340000000	62.1617185905434	-0.0441447820000001
-118.917680000000	61.4119608876593	-0.0339861730000001
-121.652580000000	61.1254818829909	-2.27959999999916e-05
-125.414010000000	60.9848340613328	0.00492595399999996
-127.967660000000	60.5295228700705	-0.0145837770000000
-129.351050000001	59.6386070801237	-0.0443050160000000
-133.732250000001	58.8845098828587	-0.0367538230000000
-136.958410000001	58.5762640139957	-0.00442585500000003
-135.103510000001	58.3581422873387	0.000615841000000006
-132.132450000001	57.8833436089355	-0.0135105100000000
-131.183850000001	56.9481945747183	-0.0437556870000000
-133.663510000000	56.1232290081796	-0.0327969550000000
-135.138540000000	55.8376289646869	-0.00574934999999999
-134.477810000000	55.6191571245460	0.000524624999999945
-132.416180000000	55.1494835768497	-0.0167762030000000
-134.045640000000	54.1730562865149	-0.0465941420000000
-135.602480000001	53.3474656756120	-0.0367538230000000
-134.795800000002	53.0160584584143	-0.00483655500000002
-131.731320000001	52.7645800094745	-0.000364957000000055
-131.025210000002	52.2951793064414	-0.0193116830000000
-131.554840000001	51.3626456345104	-0.0470977870000000
-131.529510000000	50.5523130950184	-0.0396365000000000
-130.013440000001	50.1439535066949	-0.00887605700000005
-129.848880000001	49.8660921622811	0.000798335000000039
-130.299610000000	49.3795914886350	-0.0202026350000000
-131.138780000001	48.4103541576244	-0.0493187320000000
-132.216870000000	47.5895374285973	-0.0403457930000000
-132.892890000001	47.2022813134766	-0.0107478970000000
-134.204320000001	46.9043694744761	-0.00479093100000005
-136.191840000001	46.3868669048741	-0.0219390360000000
-134.222060000000	45.4374735458473	-0.0527080940000000
-130.319680000001	44.5674104708346	-0.0455181930000000
-126.598110000001	44.1476082818268	-0.00969781400000003
-126.739070000001	43.8076592175022	-0.00527014100000001
-126.266520000001	43.2447378143823	-0.0220532880000001
-121.964300000001	42.2399498621059	-0.0559150520000000
-119.587980000000	41.3524494973628	-0.0460218080000000
-119.119900000002	40.8926909924027	-0.0132136750000000
-119.623830000000	40.5574432831561	-0.00794025600000003
-117.666120000002	40.0311006264061	-0.0225102670000000
-114.363170000001	39.0398365728471	-0.0534639340000000
-114.199500000001	38.1620442993015	-0.0454724200000001
-112.874300000001	37.7407575256234	-0.0188091100000000
-111.129580000001	37.4394128484547	-0.0101772020000001
-107.875580000000	36.8718133770612	-0.0241327430000000
-104.378180000002	35.8798441770750	-0.0563961690000000
-103.928650000002	34.9683687077667	-0.0466628000000000
-103.855500000001	34.5331198361429	-0.0178953910000000
-99.4388500000005	34.1770935076782	-0.0120035680000000
-93.4576900000011	33.6056342333790	-0.0266925400000000
-91.1043900000004	32.5564949379425	-0.0555714020000000
-89.4770200000003	31.7134411099147	-0.0504407510000000
-87.7499700000008	31.3020862691080	-0.0205681880000000
-84.3430900000003	30.9445335559899	-0.0153145260000001
-80.1865900000012	30.3591913782327	-0.0302359360000000
-78.7134300000016	29.2758570332493	-0.0597874090000000
-80.1746000000003	28.3612835515278	-0.0521354920000000
-78.8091700000005	27.9247069028488	-0.0237671000000000
-76.2381800000003	27.6060802626256	-0.0155429110000000
-75.5801300000003	27.0294170841238	-0.0283383790000000
-76.6034600000003	26.0063261029968	-0.0594207530000001
-77.8355500000016	25.1304992598259	-0.0520209720000000
-78.3607100000008	24.6594774890835	-0.0217333880000000
-80.7594600000011	24.3181677170506	-0.0138073750000001
-85.5626300000004	23.7579468187430	-0.0316078560000000
-90.7725700000010	22.7674365434490	-0.0599936530000000
-97.4497900000006	21.8704883010763	-0.0547925260000001
-103.726490000001	21.4473760436809	-0.0231958090000001
-112.917190000000	21.1065483508042	-0.0179867570000000
-122.062290000002	20.5011678129601	-0.0324082170000000
-128.396880000000	19.4795908812220	-0.0643486760000001
-132.925590000001	18.6128446420440	-0.0507842830000000
-140.075290000001	18.1200331521377	-0.0221446840000000
-147.892800000001	17.7446760222029	-0.0186263490000000
-151.556120000001	17.1562679730788	-0.0338718310000000
-152.494530000000	16.1306624018336	-0.0671687440000001
-154.677160000001	15.2475363521682	-0.0560983500000000
-160.434900000000	14.8742101551567	-0.0243841330000000
-165.378200000001	14.5593887329648	-0.0165934710000000
-166.411370000002	14.0633232213308	-0.0338489450000000
-166.854500000001	13.0966754945622	-0.0637067890000000
-168.589910000001	12.3053023288520	-0.0540594820000000
-172.388000000001	11.9026451600747	-0.0272182660000000
-173.193200000002	11.6343009719635	-0.0186492050000000
-170.104140000001	11.1901197364454	-0.0333000940000000
-170.860390000002	10.6105287421056	-0.0620793060000000
-175.000210000000	10.2809960255384	-0.0560067160000001
-176.469210000001	9.86590906183045	-0.0245669550000001
-175.526420000000	8.87226247946528	-0.0191517480000000
-174.881770000000	7.92201448099653	-0.0368453380000000
-178.964160000001	7.28434723547185	-0.0646925350000001
-182.825940000001	6.96688910201048	-0.0545405390000000
-183.099440000000	6.51413034765237	-0.0297558330000001
-181.133010000001	5.59658517148723	-0.0220075750000001
-180.733770000001	4.60637689332189	-0.0362734510000000
-184.511750000001	3.97115284902803	-0.0655178980000000
-187.571390000001	3.63523654642305	-0.0561899840000000
-187.143990000000	3.25731264071026	-0.0223503310000001
-187.502190000001	2.36027441473323	-0.0185121560000000
-188.667450000001	1.42594186341131	-0.0306475000000001
-191.176170000001	0.842591531109983	-0.0621022220000000
-192.285560000000	0.566574858187904	-0.0505781580000000
-193.093220000001	0.203169045114296	-0.0247954890000001
-192.843050000001	-0.686243358123945	-0.0159083160000000
-193.564660000000	-1.58305972745316	-0.0276754540000000
-192.203250000000	-2.13796368607621	-0.0367767090000000
-192.186200000000	-2.36987970243345	-0.0202026350000000
-193.043030000001	-2.73692327288371	-0.0259611050000000
-193.450850000001	-3.59837156046370	-0.0646008410000000
-192.856270000000	-4.41333629710888	-0.0618730030000000
-191.101940000000	-4.93132166155608	-0.0411924630000000
-189.596600000001	-5.15455055994843	-0.0199513340000000
-193.350890000002	-5.49852961810414	-0.0290242190000000
-196.380580000001	-6.34552113265370	-0.0600853460000000
-195.838970000001	-7.25295892806118	-0.0650822860000000
-195.083920000001	-7.87436268736158	-0.0415814990000000
-197.482900000001	-8.09983525253327	-0.0217333880000000
-200.384080000002	-8.40561177530698	-0.0245898110000000
-201.224150000000	-9.25015612152959	-0.0592603410000000
-199.900290000001	-10.1252457088897	-0.0618959490000001
-200.752430000000	-10.6855883296590	-0.0386526620000001
-203.186940000001	-10.9376177134887	-0.0182608550000000
-204.051370000001	-11.3004100907947	-0.0241327430000000
-202.585370000001	-12.2140425649395	-0.0592603410000000
-201.100360000000	-13.1068273806226	-0.0599019890000000
-202.733630000001	-13.6823773218956	-0.0372571110000001
-204.999630000000	-13.9111630054111	-0.0158169500000001
-203.691190000001	-14.2792165440776	-0.0248640580000000
-202.535620000001	-15.2077615581068	-0.0578854700000000
-202.322110000001	-16.1167953038877	-0.0549299620000000
-204.698070000000	-16.6693846736687	-0.0352669950000000
-208.691720000001	-16.9040746604288	-0.0157027870000001
-209.317450000000	-17.2550551300175	-0.0237899560000000
-207.623030000001	-18.1565699543328	-0.0573813780000000
-208.324080000000	-19.0331420464749	-0.0615521190000000
-209.377370000000	-19.6347443253931	-0.0426342340000000
-208.867270000001	-19.8562053720554	-0.0163422590000000
-208.807750000000	-20.2053007275905	-0.0217333880000000
-209.600880000000	-21.0767573897511	-0.0577021420000000
-209.737590000001	-22.0007093362906	-0.0598790730000001
-209.633820000001	-22.6168749529087	-0.0390416080000000
-209.801600000001	-22.8819489943994	-0.0185806660000000
-210.685470000000	-23.3346081634529	-0.0260068180000000
-212.391600000001	-24.2078778329655	-0.0627898810000001
-213.962950000001	-25.1463664649993	-0.0615521190000000
-213.169680000001	-25.7649783357876	-0.0405517390000000
-211.953980000000	-25.9999163484511	-0.0175299270000000
-213.266080000001	-26.4242079496527	-0.0268525340000000
-214.096530000001	-27.3083301466584	-0.0642798980000000
-213.949170000002	-28.2418285987524	-0.0631337110000000
-211.012750000002	-28.8430974844694	-0.0395220690000000
-212.625230000001	-29.0974234603726	-0.0184207600000000
-216.089180000001	-29.4323590654427	-0.0262125250000000
-217.927840000000	-30.3598661473023	-0.0629732390000001
-216.974090000002	-31.2568568175030	-0.0614604550000000
-216.086050000002	-31.8698264217896	-0.0432750470000001
-215.443190000000	-32.1028861060002	-0.0180324400000000
-217.096570000002	-32.4875865537053	-0.0265782580000000
-215.081640000000	-33.3813279064787	-0.0614604550000000
-211.660230000001	-34.3416281614860	-0.0651052020000000
-212.926060000002	-35.0100881892949	-0.0447399130000000
-215.362140000001	-35.3117460192320	-0.0214363740000000
-215.918350000000	-35.6839755564901	-0.0339861730000001
-212.166830000000	-36.5717992421535	-0.0621022220000000
-209.655960000000	-37.5093412857411	-0.0665955160000000
-212.566520000000	-38.1685183115987	-0.0454266180000000
-215.168880000001	-38.4115558781044	-0.0199513340000000
-214.472380000001	-38.8799940395537	-0.0326140140000000
-212.626420000001	-39.7828798632494	-0.0633400140000000
-212.858120000001	-40.7677941915543	-0.0667789340000000
-213.671810000002	-41.4332624993324	-0.0447856850000000
-214.077380000001	-41.7624287991978	-0.0217562440000000
-211.699050000001	-42.2019120511013	-0.0271725540000001
-211.115860000002	-43.1016626871166	-0.0667330720000000
-211.689060000001	-44.1739699459209	-0.0648530360000000
-212.630370000001	-44.8532635897476	-0.0460676100000000
-212.067080000001	-45.1618887204896	-0.0208423160000000
-211.537310000002	-45.6350919720550	-0.0309904950000001
-212.451350000001	-46.6026414380202	-0.0649905920000000
-214.129980000002	-47.5684629813944	-0.0695766230000000
-212.748900000001	-48.2994131265889	-0.0502804580000000
-212.193430000001	-48.6498462887373	-0.0259382490000000
-212.822060000000	-49.1167431471720	-0.0306932430000000
-213.422310000000	-50.0725025762980	-0.0651281470000000
-213.462680000001	-51.0805914811121	-0.0685904900000001
-213.924580000001	-51.7842152313184	-0.0501888840000000
-215.054970000001	-52.1132570591423	-0.0225559790000001
-218.526080000001	-52.5711629147960	-0.0376231410000000
-218.847170000001	-53.4955892255745	-0.0666642940000001
-216.856160000001	-54.4947869270025	-0.0722831540000000
-216.156750000000	-55.1661767290694	-0.0511507000000000
-218.984180000001	-55.4675690229767	-0.0288413390000000
-220.646940000001	-55.9050878872159	-0.0362505950000001
-221.664690000001	-56.8191255704022	-0.0670082430000000
-219.252820000002	-57.8310206533696	-0.0786617890000000
-218.628960000000	-58.4906442381682	-0.0526393760000000
-220.339110000001	-58.7312740686118	-0.0280412160000000
-221.812790000000	-59.1338777408213	-0.0390644640000000
-220.504130000001	-60.0216205659389	-0.0720996470000000
-220.868360000000	-60.9707977008796	-0.0721455090000000
-222.390540000000	-61.5799815866913	-0.0566481850000000
-225.123870000001	-61.8204403349027	-0.0314020590000000
-224.427150000001	-62.1227082570513	-0.0392246380000000
-221.775250000001	-62.9589618981952	-0.0718931950000000
-222.408570000001	-63.8846320913524	-0.0755409210000000
-225.910740000001	-64.5026864293370	-0.0554110490000000
-227.595190000000	-64.7012227862880	-0.0305560450000000
-225.080740000001	-65.0347134822559	-0.0392017520000000
-223.348310000001	-65.8262124627745	-0.0703793380000000
-226.039180000002	-66.6380867572161	-0.0755179760000000
-230.153520000002	-67.1524123009159	-0.0538304410000000
-231.600830000001	-67.2870952266853	-0.0292756990000000
-230.334850000001	-67.5784572456739	-0.0384009730000000
-228.688030000001	-68.3168463293629	-0.0702417230000000
-228.467360000001	-69.1087463958869	-0.0769176990000000
-227.059230000001	-69.5945853898714	-0.0536013710000001
-224.382970000001	-69.6933590133533	-0.0257782540000000
-223.976120000001	-69.9567640461872	-0.0366165650000000
-224.814850000001	-70.7318465888940	-0.0690261920000000
-223.619050000001	-71.5129030003600	-0.0732695850000000
-223.042340000000	-72.0219243695658	-0.0507613670000000
-223.627170000002	-72.1338254197156	-0.0262810950000000
-225.903220000000	-72.3191352416396	-0.0304417330000000
-227.212400000000	-72.9814129726197	-0.0660910960000000
-225.327550000000	-73.7884899821666	-0.0721914010000000
-223.632900000001	-74.2478817392049	-0.0518377630000000
-225.376350000000	-74.3285266062543	-0.0239727780000000
-227.812870000002	-74.5282402429414	-0.0330027820000001
-228.713060000000	-75.1977178191221	-0.0635921800000000
-226.991140000000	-75.9745005317374	-0.0650822860000000
-227.228650000001	-76.4167625729955	-0.0453808460000000
-230.039980000001	-76.5187183350683	-0.0201569520000000
-231.953730000001	-76.7630237460825	-0.0306246440000000
-230.356750000001	-77.4726360613877	-0.0604749480000000
-227.440900000001	-78.2554306615962	-0.0641652580000001
-227.350970000001	-78.7263281345003	-0.0438930050000000
-229.175110000000	-78.8094962040509	-0.0181695190000000
-229.394960000001	-79.0182497631116	-0.0291613880000000
-227.270740000000	-79.6723923400862	-0.0633170680000000
-224.524300000001	-80.4111821281115	-0.0638443450000000
-222.312020000001	-80.8660539734620	-0.0458386890000000
-221.017880000001	-80.9188677494899	-0.0194487320000000
-219.837720000001	-81.1144681259833	-0.0243612770000000
-217.127710000001	-81.6967157422776	-0.0561899840000000
-215.913360000000	-82.4032906625397	-0.0659535110000000
-216.127850000001	-82.8693250067088	-0.0429088390000000
-215.715860000000	-83.0514841801620	-0.0177355160000000
-215.142510000002	-83.2400454444548	-0.0256868580000000
-215.796840000001	-83.8561546693501	-0.0570376980000000
-217.452010000001	-84.6010025549211	-0.0643028140000000
-217.193570000001	-84.9856844314894	-0.0421307380000000
-218.885170000001	-85.0032034694959	-0.0195172710000000
-221.726220000000	-85.1241592196087	-0.0290242190000000
-223.736310000000	-85.7506841330183	-0.0600853460000000
-225.851210000001	-86.4055447004040	-0.0650822860000000
-226.545550000001	-86.7977338761064	-0.0444194470000000
-228.150660000001	-86.7713382834399	-0.0186492050000000
-231.273320000000	-86.9218138073375	-0.0270354150000001
-233.614640000002	-87.4844082122698	-0.0567627650000000
-232.687930000000	-88.1363143928332	-0.0625148000000000
-235.827810000001	-88.4545177134553	-0.0437099150000000
-243.047450000000	-88.4236429293331	-0.0169817610000000
-249.025330000000	-88.5031575757678	-0.0265096590000000
-252.036920000000	-88.9687260238628	-0.0523187010000000
-251.676570000001	-89.5427001195274	-0.0607041080000000
-251.024760000000	-89.8131357021280	-0.0447856850000000
-254.150340000000	-89.7203125901794	-0.0259382490000000
-256.414320000002	-89.7797990911802	-0.0263953770000001
-255.668200000000	-90.2517948166689	-0.0549299620000000
-254.063840000001	-90.7779063166021	-0.0636150960000000
-257.061130000000	-91.0641254305147	-0.0397280150000000
-261.143730000002	-90.9431863203323	-0.0153145260000001
-262.831970000001	-90.9588480753056	-0.0222132230000001
-261.661200000000	-91.4337376197935	-0.0559379680000001
-259.822840000001	-92.0242343332142	-0.0579313020000000
-261.413420000001	-92.3045969686166	-0.0405288830000000
-263.642760000001	-92.1435917628342	-0.0126885150000000
-262.435330000000	-92.1041906073440	-0.0244755290000001
-259.373760000000	-92.5868660367164	-0.0519751690000000
-256.898640000001	-93.1737960496201	-0.0580229360000000
-253.458460000002	-93.4440841401201	-0.0358845940000000
-238.524780000002	-93.3418526043408	-0.0126656880000000
-209.200840000001	-93.3470713081935	-0.0200198440000000
-170.096090000001	-93.7655238615814	-0.0457700000000000
-151.530540000002	-94.3842188101610	-0.0530745410000000
-141.686400000001	-94.6827046031806	-0.0329341830000001
-115.217220000000	-94.5284258437090	-0.00876195300000005
-107.888140000001	-94.5361633294166	-0.0189004760000000
-176.377180000001	-95.0278775705693	-0.0464109930000001
-312.211020000001	-95.5695450964464	-0.0500972790000001
-397.664160000000	-95.8311071798102	-0.0341920290000001
-386.134390000001	-95.7242851296663	-0.00709579100000002
-370.681750000002	-95.6831360411069	-0.0161823840000001
-390.306310000000	-96.1987775717851	-0.0468001770000001
-362.910730000001	-96.7591654986744	-0.0545863710000000
-319.883550000000	-96.9642500405003	-0.0340090590000001
-284.642440000001	-96.8422732163272	-0.00463120500000003
-266.650840000000	-96.8558815733542	-0.0127113410000000
-259.239510000001	-97.2854862769794	-0.0475098880000000
-242.929300000002	-97.8125849602421	-0.0545405390000000
-231.721810000001	-98.0730056776085	-0.0335287770000000
-231.829240000001	-97.9304583663183	-0.00873912700000001
-234.336170000001	-97.8820882882170	-0.0158854590000000
-237.150180000001	-98.3225217942803	-0.0434352510000000
-240.011360000000	-98.8831045967869	-0.0568543990000000
-243.994270000001	-99.1237006826496	-0.0356101090000001
-249.945330000000	-98.9771607595342	-0.00547549100000000
-251.972180000001	-98.9501535986707	-0.0162508930000000
-250.965020000001	-99.3934142963824	-0.0485172980000000
-249.018700000001	-99.8963565513858	-0.0519293670000001
-251.933520000001	-100.097380111137	-0.0333458360000000
-254.815030000002	-99.9569672196649	-0.00883043299999997
-254.122770000000	-99.9234030319962	-0.0131908490000000
-251.657490000001	-100.269140169996	-0.0503033740000001
-250.892380000001	-100.771613659680	-0.0533723000000000
-252.251630000001	-100.958449079561	-0.0297786890000000
-252.696770000000	-100.763172874267	-0.00800873599999996
-250.626860000000	-100.687180994757	-0.0170274440000000
-249.698810000002	-101.126448287668	-0.0447627990000000
-250.335490000001	-101.661477008914	-0.0513339090000000
-252.173030000000	-101.817628963929	-0.0336431180000000
-250.781450000000	-101.558612796626	-0.00682193200000003
-248.817480000002	-101.454951770989	-0.0130766860000000
-248.452650000001	-101.792060049245	-0.0456555400000001
-248.871640000001	-102.245051569391	-0.0537388070000000
-249.292860000001	-102.405575695157	-0.0324996730000000
-248.368170000002	-102.209766426829	-0.00673065500000003
-247.734250000001	-102.096946775277	-0.0146751130000000
-248.376070000000	-102.397791555586	-0.0460218080000000
-247.165290000001	-102.821456318301	-0.0500743630000000
-244.373930000002	-103.015519551960	-0.0300301690000000
-240.457680000001	-102.789097738476	-0.00730120099999998
-240.627250000001	-102.686815967548	-0.0144010750000000
-240.707190000001	-103.048306501682	-0.0396822430000000
-240.162890000001	-103.661695273199	-0.0501888840000000
-238.307990000001	-103.641146593030	-0.0292299870000000
-237.634730000002	-104.074068080400	-0.00378697900000002
-237.059370000001	-104.654995640805	-0.0117067620000000
-235.366060000000	-104.959747606195	-0.0460447240000000
-232.740530000001	-104.821915338229	-0.0525019390000000
-230.382530000001	-104.827933465566	-0.0273325480000001
-229.701230000001	-105.237289641375	0.000319333999999949
-228.900800000001	-105.766177189918	-0.00999455999999999
-226.291580000001	-106.067125235986	-0.0393619250000000
-220.587340000000	-105.904275181618	-0.0471435890000000
-216.791790000001	-105.907247948904	-0.0277211670000000
-216.729140000001	-106.292966103554	-0.00399232800000005
-213.383940000002	-106.839488577182	-0.00949237500000000
-207.406130000001	-107.116825216087	-0.0370512240000001
-202.528620000001	-106.965732709350	-0.0452893010000001
-199.969020000000	-106.977705197109	-0.0300530550000000
-197.161340000001	-107.370020356031	-0.00205302200000002
-192.822460000001	-107.890490427020	-0.0102913350000000
-187.385970000001	-108.219080607945	-0.0411924630000000
-182.403410000001	-108.067974649408	-0.0580458520000000
-180.546720000000	-108.080621198954	-0.0158854590000000
-178.985050000001	-108.466062551614	-0.0461133830000000
-176.238830000000	-109.021934969393	-0.0560525180000000
-173.561680000001	-109.279412046782	-0.0377375120000000
-174.484210000001	-109.122577420424	-0.00828262499999999
-174.270920000001	-109.105865765932	-0.0178497080000000
-172.361930000001	-109.473985168395	-0.0447399130000000
-171.858530000001	-110.036618786767	-0.0527768120000001
-175.195760000001	-110.301855307859	-0.0376688830000000
-180.831910000001	-110.133909140822	-0.00679910500000003
-185.583890000002	-110.104052134808	-0.0178268520000000
-189.736000000001	-110.511565383084	-0.0433437060000000
-196.930390000001	-111.090853260658	-0.0541282000000001
-203.967660000000	-111.412825252304	-0.0362734510000000
-210.943690000000	-111.274972289296	-0.00775767299999997
-215.767420000000	-111.219314298264	-0.0186035220000000
-222.520620000001	-111.623012553422	-0.0439616930000000
-229.080940000002	-112.144201023450	-0.0525706580000001
-232.940490000001	-112.432655519659	-0.0398653020000001
-234.516310000001	-112.352185350298	-0.00794025600000003
-235.404870000000	-112.382919945101	-0.0188319370000000
-239.094780000001	-112.792984409382	-0.0436870290000000
-244.851620000001	-113.443918682886	-0.0551132600000001
-247.143540000001	-113.780953108183	-0.0353127670000000
-246.988580000001	-113.670402589771	-0.00773484599999996
-247.004150000001	-113.671801992473	-0.0170502710000000
-250.829050000000	-114.081051771038	-0.0427028930000000
-251.581730000002	-114.635618607997	-0.0557317840000000
-249.185960000001	-114.948739754441	-0.0359989660000000
-246.838240000001	-114.821575670708	-0.00716427100000006
-248.511280000001	-114.852313490127	-0.0163422590000000
-249.561440000001	-115.258272385974	-0.0454953060000001
-249.208900000001	-115.871079297146	-0.0570147820000000
-248.443560000002	-116.181115649467	-0.0399568170000000
-251.352340000001	-116.127594628964	-0.00935541500000003
-255.167860000001	-116.143076788898	-0.0148121330000001
-256.308080000001	-116.556458021773	-0.0454266180000000
-254.735010000000	-117.170835882308	-0.0533264980000000
-253.239500000002	-117.557614161522	-0.0378976560000001
-253.115830000001	-117.542797177714	-0.0133506940000000
-253.696630000000	-117.626038920101	-0.0207509500000000
-253.917380000001	-118.083456543046	-0.0460447240000000
-252.043030000001	-118.722556565173	-0.0621709700000001
-250.971720000001	-119.181358527769	-0.0413526670000001
-252.109040000001	-119.157004843021	-0.0115697730000001
-251.767680000001	-119.049812111443	-0.0190146990000000
-251.749050000000	-119.052171716995	-0.0462049570000000
-251.291250000000	-119.276369970901	-0.0559608840000000
-253.602610000000	-119.489030649209	-0.0399568170000000
-254.426580000001	-119.579069204832	-0.0106565900000000
-253.097130000000	-119.915202310201	-0.0211622160000000
-251.377220000000	-120.616097327349	-0.0461820710000001
-251.386980000001	-121.360647265427	-0.0600395140000000
-249.982210000000	-121.751385983440	-0.0399568170000000
-247.963260000000	-121.667171529700	-0.0157712670000000
-245.105070000001	-121.682872919143	-0.0203625700000000
-245.389730000001	-122.033664519138	-0.0468917520000001
-246.562360000000	-122.628522885444	-0.0603603380000001
-245.718130000001	-122.891829183219	-0.0452893010000001
-243.171500000000	-122.709564657397	-0.0185806660000000
-241.052420000000	-122.676744313786	-0.0251154480000000
-243.273260000000	-123.101285943557	-0.0500743630000000
-245.081300000002	-123.737484464840	-0.0622626640000000
-242.846900000000	-124.144952986285	-0.0503491770000000
-240.469680000000	-124.138017758706	-0.0182151720000000
-241.003990000001	-124.213363192540	-0.0126885150000000
-244.066320000000	-124.632351158048	-0.0199741610000000
-244.235210000001	-125.221064226890	-0.0347637970000000
-241.778640000000	-125.486133166256	-0.0340319450000001
-240.217420000001	-125.325467680924	-0.0258925360000000
-240.272780000001	-125.339917072643	-0.0423138270000000
-243.483500000000	-125.723466826000	-0.0666872400000000
-244.290490000001	-126.322862707569	-0.0697142380000000
-242.598070000000	-126.658292150986	-0.0462507600000001
-241.052940000001	-126.452244708138	-0.0146522570000001
-243.470690000000	-126.413505575535	-0.0212992950000001
-245.664040000001	-126.732230639805	-0.0436412560000000
-243.101540000001	-127.262082046601	-0.0599707660000001
-240.488080000001	-127.529948324286	-0.0379663140000001
-241.292830000000	-127.389177932662	-0.00830542200000006
-245.508410000000	-127.364889912476	-0.0182380280000000
-250.299950000001	-127.717287486504	-0.0487233630000000
-244.390090000001	-128.236775091921	-0.0629044910000001
-243.384490000000	-128.485048400372	-0.0477617250000000
-249.649790000001	-128.256981000760	-0.0202026350000000
-252.513650000001	-128.117134927530	-0.0256868580000000
-248.683450000000	-128.392475767828	-0.0486089020000000
-240.985140000001	-128.855301910749	-0.0599936530000000
-240.099130000001	-129.045074153439	-0.0385153740000001
-244.912370000000	-128.791990518067	-0.0101772020000001
-241.693690000000	-128.741242136556	-0.0218247830000000
-235.263540000000	-129.055871592542	-0.0464338790000001
-232.674460000000	-129.643165277287	-0.0608874660000001
-238.269050000001	-129.932200611583	-0.0433894780000000
-240.703350000002	-129.743998250028	-0.00734685400000001
-234.609790000000	-129.677853166733	-0.0184664430000000
-227.309550000000	-129.902969074616	-0.0422909410000000
-233.013220000001	-130.311185055630	-0.0564190850000000
-234.577880000001	-130.484285951304	-0.0390416080000000
-225.802770000000	-130.221105440229	-0.0118437520000000
-214.085280000001	-130.047932513677	-0.0195858110000000
-211.697120000001	-130.257713668727	-0.0446941410000000
-217.829900000001	-130.726189385909	-0.0558921360000000
-218.705300000001	-130.855721941566	-0.0378976560000001
-207.949520000000	-130.551231945286	-0.00618293599999997
-201.893960000001	-130.391616823258	-0.0120263940000001
-204.501250000001	-130.647550860653	-0.0396822430000000
-204.407100000000	-131.119863327083	-0.0522270960000000
-189.026670000001	-131.260760297093	-0.0341005440000001
-170.903440000000	-130.917964319615	-0.00460840800000006
-161.566670000000	-130.696830256735	-0.0180552970000000
-164.228270000001	-130.898128918544	-0.0424053720000001
-149.427600000001	-131.232777462233	-0.0606353600000000
-126.523490000001	-131.288008224469	-0.0408492300000001
-113.867070000000	-130.948907457251	-0.00908149599999997
-115.074360000001	-130.762617693144	-0.0171873200000000
-111.359060000001	-130.926359086776	-0.0365937090000000
-93.1269900000007	-131.323433893190	-0.0488378530000000
-69.6341800000009	-131.473769132414	-0.0332314650000001
-56.1418700000013	-131.136257607946	-0.00417485200000001
-52.0227100000011	-130.872475953443	-0.0101315490000000
-35.4045300000016	-131.043489679446	-0.0356329950000001
-9.29074000000037	-131.442332680107	-0.0529142190000000
7.14775000000009	-131.551558083612	-0.0303959900000000
12.0862600000000	-131.254569619654	-0.00148271499999997
19.6549199999990	-131.034991884540	-0.0110903550000000
40.0571799999998	-131.131175003155	-0.0387670630000000
58.5321899999999	-131.502324899294	-0.0532348940000000
65.9410499999995	-131.588425354571	-0.0312191480000000
74.3328599999986	-131.269103227550	0.00100359500000002
96.7881899999993	-131.099477198796	-0.00705013799999998
123.282159999999	-131.306632775473	-0.0351755100000000
141.840989999999	-131.714091665031	-0.0440990100000001
150.201959999999	-131.826753559614	-0.0255268630000001
161.008909999999	-131.500335236236	0.000752711999999933
193.183359999999	-131.265423394458	-0.00937824200000004
214.993890000000	-131.429281168796	-0.0326826430000000
220.183840000000	-131.831282190328	-0.0482654600000000
231.307040000000	-131.979663699513	-0.0318822520000001
258.649640000000	-131.615914903231	0.000615841000000006
289.539639999999	-131.403993123171	-0.00424330200000000
307.634479999999	-131.585686030858	-0.0331857520000001
317.831719999998	-131.972184943592	-0.0484028370000000
345.004019999999	-132.125359560848	-0.0291613880000000
379.172750000000	-131.872799279833	-0.00209864500000001
398.815999999999	-131.704062685927	-0.00720992399999998
407.546419999999	-131.880889966643	-0.0282240970000001
421.591890000000	-132.248107711282	-0.0465712260000000
448.533969999999	-132.377270033160	-0.0276297110000000
481.298680000000	-132.040581477529	-0.000615871000000046
488.611659999999	-131.790628767011	-0.0105424570000000
500.368269999999	-131.914074202818	-0.0356329950000001
527.806299999998	-132.250649305481	-0.0490210320000000
559.704730000000	-132.364372291309	-0.0294357240000001
581.774519999999	-131.980507369761	-0.000182463000000022
594.252129999999	-131.734812106937	-0.00622856000000005
611.314399999999	-131.898184020113	-0.0327740980000000
643.847339999998	-132.284589693617	-0.0486775900000001
673.063769999999	-132.410917259450	-0.0318365390000001
697.732189999999	-132.043697120813	0.00228078200000004
728.061420000000	-131.844402280916	-0.00778047000000004
761.235809999998	-132.004413155840	-0.0339861730000001
793.543009999999	-132.390553588195	-0.0476701510000001
824.499389999999	-132.501526440153	-0.0321795340000001
859.089419999998	-132.147079601482	-0.00515603799999997
892.252189999999	-131.813360808184	-0.0107022430000000
925.327109999998	-131.674224299866	-0.0337117470000000
958.546649999998	-131.476879173380	-0.0464338790000001
994.323020000000	-130.513609548520	-0.0306246440000000
1031.11699000000	-128.244093490012	0.000410581000000021
1068.02517000000	-124.993363730319	-0.00531576400000000
1103.80892000000	-120.719869419955	-0.0301673670000000
1142.21074000000	-115.056632436818	-0.0443965600000000
1181.49204000000	-107.350035828263	-0.0295957780000000
1217.18237000000	-97.3113712431716	0.00355781899999996
1252.87605000000	-85.5747041098423	-0.00558959400000003
1285.18079000000	-72.4908204378062	-0.0328198410000000
1319.13452000000	-58.2225475168655	-0.0477159530000000
1353.86984000000	-42.5106445270077	-0.0304417330000000
1388.62951000000	-25.4064238808187	0.00244041900000003
1427.55879000000	-7.67521928507011	-0.00869347399999998
1466.73036000000	10.2301923430573	-0.0326140140000000
1496.68232000000	28.3583300749263	-0.0477159530000000
1530.15865000000	46.9949281357169	-0.0294357240000001
1568.21026000000	66.2005843722218	0.00157378300000000
1605.79542000000	85.4758563008277	0.000250913999999991
1633.95401000000	104.464100424672	-0.0126656880000000
1660.57873000000	123.329091322052	-0.00876195300000005
1691.58584000000	142.495905346189	0.0423325300000000
1726.55068000000	162.179931306676	0.129575970000000
1755.39476000000	182.004416433615	0.195367997000000
1784.58414000000	201.815534307659	0.264093412000000
1815.96829000000	221.958620540201	0.357454283000000
1850.10149000000	242.978779481884	0.494620952000000
1884.10864000000	265.149454454503	0.651374979000000
1909.45181000000	288.195377050350	0.766246170000000
1935.11771000000	311.914649873237	0.858014274000000
1973.70080000000	336.611447785065	0.939151481000000
2010.67021000000	362.751605980332	1.03776856100000
2038.11764000000	390.538417650074	1.13320511800000
2060.65901000000	419.297779082112	1.17785119100000
2088.29238000000	448.686114808727	1.19241650300000
2126.03824000000	478.723073358091	1.21024541800000
2162.30721000000	509.626928673404	1.24716035600000
2186.72509000000	541.465131414548	1.28819978800000
2213.65488000000	573.589511930363	1.29603777900000
2247.26979000000	605.662338099972	1.28011112500000
2277.63590000000	637.729447488268	1.27505499800000
2300.37060000000	670.108778739355	1.29831677800000
2315.98347000000	702.899488408455	1.33598805300000
2337.87289000000	735.622537404011	1.34862857100000
2371.28173000000	768.069113451444	1.35103737500000
2395.96312000000	800.474364504864	1.37646632800000
2424.18653000000	833.234168582725	1.43829083000000
2468.14099000000	866.632674999520	1.51849088300000
2531.64344000000	900.248301863684	1.58053122200000
2581.01420000000	933.900527842036	1.62925742700000
2607.24980000000	967.743120181067	1.69837404100000
2640.79363000000	1002.21829891928	1.79870905200000
2674.17766000000	1037.50391714585	1.91283720200000
2658.73678000000	1073.08406105758	1.98229920400000
2550.31587000000	1108.71223860488	2.02901806400000
2465.62619000000	1144.50544064365	2.07715152400000
2476.31446000000	1180.80249545792	2.13994454900000
2528.90295000000	1217.73008615399	2.20737858700000
2542.25445000000	1254.73884922093	2.23175684500000
2553.97597000000	1291.65442416627	2.23366726500000
2602.74328000000	1328.54918279435	2.23862494100000
2660.02907000000	1365.76680773096	2.26477757500000
2712.50447000000	1399.34027533344	2.29759261800000
2738.87998000000	1423.90204914163	2.29854019900000
2752.37720000000	1444.60463272692	2.28555569900000
2774.19533000000	1461.16509934494	2.28820170800000
2803.11987000000	1472.84337256977	2.31723270600000
2827.53260000000	1479.54089365075	2.36526601000000
2827.09550000000	1482.09506642635	2.38530017200000
2834.13938000000	1482.43187763016	2.39333572000000
2856.85955000000	1483.14680394261	2.41162851000000
2878.44412000000	1483.84691392157	2.45943432400000
2885.26987000000	1484.14821016660	2.51920231000000
2884.41214000000	1483.88932545179	2.54471094700000
2895.22423000000	1483.56859900042	2.55383580700000
2917.37336000000	1483.58236909374	2.57076805300000
2924.75160000000	1483.39139354983	2.61031632100000
2926.28599000000	1482.85202495347	2.65839400000000
2935.19297000000	1481.94862872949	2.66995240300000
2957.68360000000	1481.13544612030	2.66990028500000
2979.63315000000	1480.77320273855	2.67465744200000
2986.56774000000	1480.22994215419	2.70232330900000
2987.31831000000	1479.19348783002	2.46557467700000
3009.43325000000	1477.72766430543	1.87038368000000
3026.49999000000	1476.36386834778	1.61719284800000
3031.08738000000	1475.48745869670	1.34449783800000
3032.90830000000	1474.43045871825	1.02177490900000
3037.69483000000	1472.99715226438	0.691668714000000
3054.67821000000	1471.26730068628	0.416560353000000
3070.98058000000	1469.57562824085	0.269161412000000
3072.68952000000	1468.40851050946	0.294425151000000
3077.02078000000	1467.17913410319	0.293556401000000
3082.79876000000	1465.55826356433	0.267085358000000
3081.18425000000	1463.54536145082	0.229790114000000
3080.30931000000	1461.70394734251	0.225624238000000
3081.37188000000	1460.36833225985	0.247870620000000
3081.23002000000	1458.86293294957	0.234223203000000
3077.25804000000	1457.03151572711	0.210965210000000
3076.51920000000	1454.84613352930	0.186606919000000
3076.81339000000	1452.82029045335	0.192470782000000
3075.34304000000	1451.28535712960	0.222398036000000
3071.89672000000	1449.63240405649	0.210269924000000
3068.71034000000	1447.64739511488	0.177299911000000
3065.28437000000	1445.33769087265	0.148502771000000
3063.93180000000	1443.15604003920	0.155060610000000
3060.22109000000	1441.56671929085	0.187326015000000
3056.27459000000	1439.78255491689	0.175140774000000
3055.67678000000	1437.60288941799	0.149877729000000
3055.73473000000	1435.18943870206	0.129869468000000
3052.74525000000	1432.88671341716	0.132126795000000
3050.18645000000	1431.15742880545	0.166815516000000
3048.96464000000	1429.23856161076	0.162470661000000
3050.66933000000	1427.04073101258	0.136166412000000
3050.39336000000	1424.49172987341	0.109761166000000
3045.93638000000	1422.00829964308	0.120858635000000
3042.20891000000	1420.15636252908	0.154272051000000
3042.48968000000	1418.10107630538	0.142730778000000
3044.03591000000	1415.81145025481	0.120745664000000
3041.09583000000	1413.18802288525	0.0968431439999999
3038.64543000000	1410.70627804273	0.107115310000000
3035.87834000000	1408.79302122332	0.139505408000000
3035.53554000000	1406.73419597202	0.131381922000000
3034.13761000000	1404.35599253537	0.108969716000000
3029.30135000000	1401.69680155661	0.0869929410000000
3024.24114000000	1399.18385370725	0.0951453650000000
3020.62274000000	1397.22234249610	0.134270883000000
3016.99874000000	1395.14147310835	0.121016752000000
3010.10494000000	1392.73132687677	0.0943530210000000
2999.89284000000	1390.02348369034	0.0784045160000000
2990.49673000000	1387.37623424191	0.0853844720000000
2982.27802000000	1385.36035867633	0.123230542000000
2970.99044000000	1383.23641679031	0.110303849000000
2956.95023000000	1380.73518158720	0.0913868770000000
2942.66327000000	1377.88171764226	0.0676096600000000
2930.59969000000	1375.25797159253	0.0715567510000000
2920.79771000000	1373.13513111555	0.113242904000000
2908.34234000000	1370.93976470640	0.0993780260000000
2895.72112000000	1368.40147445348	0.0834132510000000
2885.04481000000	1365.52900244063	0.0607787020000000
2876.29104000000	1362.84818448882	0.0697875120000000
2867.95232000000	1360.74613600131	0.107273606000000
2859.09529000000	1358.52186677658	0.0972505660000000
2852.66570000000	1355.93453539987	0.0756159780000000
2847.74854000000	1353.09660373792	0.0564876030000000
2841.10327000000	1350.30566939897	0.0657945000000000
2832.44181000000	1348.13534964647	0.102138641000000
2825.73619000000	1345.85481918174	0.0938549190000000
2821.65335000000	1343.26402089746	0.0715567510000000
2816.86448000000	1340.34237823938	0.0513090979999999
2811.09242000000	1337.54883654542	0.0548979370000000
2805.71038000000	1335.29405898315	0.0965488720000000
2802.67709000000	1333.01803436947	0.0890088910000000
2798.42082000000	1330.35600915567	0.0635024550000000
2791.90071000000	1327.42187162300	0.0396041870000000
2783.11833000000	1324.52783668263	0.0544437300000000
2777.97588000000	1322.22731051827	0.0874006900000000
2773.28378000000	1319.86138510617	0.0822122630000000
2766.64477000000	1317.24687055024	0.0589852359999999
2757.21022000000	1314.24505223215	0.0362839320000000
2748.80310000000	1311.43819152698	0.0485827220000000
2742.84264000000	1309.26051567444	0.0867211080000000
2738.96207000000	1306.93820198697	0.0782231550000000
2735.38590000000	1304.28468916752	0.0536487630000000
2729.81924000000	1301.32582605480	0.0365113940000000
2724.43139000000	1298.52698964612	0.0391721509999999
2720.52869000000	1296.28764081938	0.0800818820000000
2716.39198000000	1293.96537377257	0.0723732330000000
2710.56026000000	1291.32685812734	0.0513090979999999
2703.92326000000	1288.39829966772	0.0288215460000000
2699.45153000000	1285.61945335013	0.0368752780000000
2695.48379000000	1283.41607665667	0.0723278780000000
2691.47493000000	1281.12458633012	0.0705360810000000
2684.72886000000	1278.46252851945	0.0444238440000000
2679.21853000000	1275.52748413631	0.0258399060000000
2674.68377000000	1272.74970846974	0.0280250000000000
2671.66702000000	1270.55157737403	0.0671105150000000
2666.59296000000	1268.21626087761	0.0623676230000000
2659.95373000000	1265.59325652065	0.0454011850000000
2654.37366000000	1262.63019915451	0.0191457260000000
2650.36815000000	1259.83716351996	0.0316432220000000
2645.90357000000	1257.61169744351	0.0731216530000000
2639.87762000000	1255.34309191848	0.0631166380000000
2635.92911000000	1252.72766474376	0.0406501270000000
2631.25153000000	1249.83227451058	0.0198517410000000
2624.62616000000	1247.00219858742	0.0300276600000000
2619.58361000000	1244.77881458745	0.0668609420000000
2615.35549000000	1242.49626741019	0.0609603020000000
2613.65963000000	1239.82247429386	0.0394905010000000
2609.09403000000	1236.81299069667	0.0197151100000000
2601.77290000000	1233.99355707167	0.0292084360000000
2593.68337000000	1231.74849964734	0.0671105150000000
2590.08173000000	1229.41159921660	0.0608695020000000
2586.46176000000	1226.79095826022	0.0357835650000000
2580.39424000000	1223.81640686854	0.0171413380000000
2573.13121000000	1220.96825677761	0.0271373560000000
2569.08190000000	1218.73426032385	0.0653179429999999
2568.45169000000	1216.39270191080	0.0558063520000000
2565.29101000000	1213.75711581250	0.0362384280000000
2557.46834000000	1210.81134642011	0.0131316060000000
2551.61292000000	1208.01754032333	0.0239731620000000
2547.13583000000	1205.78862331842	0.0613462080000000
2544.30973000000	1203.48825159646	0.0580997970000000
2538.24645000000	1200.87566749613	0.0346007250000000
2530.73222000000	1197.89022926352	0.0155011610000000
2524.91234000000	1195.07878613477	0.0193734860000000
2523.04751000000	1192.87945028040	0.0593485240000000
2519.42776000000	1190.57824423847	0.0550342109999999
2514.22384000000	1187.95828386636	0.0285711989999999
2509.82354000000	1184.98354372962	0.00574675800000002
2507.42960000000	1182.18791867990	0.0179158020000000
2505.12216000000	1179.98362573876	0.0557382300000000
2499.65330000000	1177.64539766729	0.0492416540000000
2493.28620000000	1175.04679998512	0.0299366220000000
2488.35844000000	1172.10464019830	0.00590636499999997
2483.70916000000	1169.24200885935	0.0138379789999999
2479.13096000000	1166.98584371048	0.0543074560000000
2473.86728000000	1164.70087269484	0.0467647910000000
2470.71701000000	1162.05397752215	0.0267731730000000
2466.90519000000	1159.08676794274	0.00565557100000003
2463.46996000000	1156.26245514746	0.0152961090000000
2457.91394000000	1153.94559539554	0.0524903290000000
2452.98551000000	1151.60552305385	0.0473556589999999
2449.33706000000	1148.94963630138	0.0261585839999999
2444.61917000000	1145.96482699805	0.000866754999999997
2437.31739000000	1143.16814791822	0.0119694770000000
2430.15016000000	1140.97299465374	0.0523086400000000
2426.76612000000	1138.67486605829	0.0451511960000000
2424.87505000000	1136.04272169366	0.0235178520000000
2420.14397000000	1133.13977424133	-0.000570246999999968
2412.65647000000	1130.36177805348	0.0108755880000000
2408.35182000000	1128.13551264709	0.0498323730000000
2405.04757000000	1125.80733699793	0.0405364410000000
2400.71119000000	1123.27292865341	0.0227892490000000
2395.12634000000	1120.31799284631	-0.000547450000000005
2388.85467000000	1117.52993355725	0.00426469900000004
2384.51449000000	1115.33741298599	0.0442192690000000
2381.20107000000	1113.06849199523	0.0419233200000000
2376.95253000000	1110.47875093247	0.0174146900000000
2370.46787000000	1107.53624164617	-0.00438020200000000
2364.83497000000	1104.81909588040	0.00465233300000001
2361.29648000000	1102.66888551004	0.0380124050000000
2358.18913000000	1100.43330247179	0.0360792380000000
2351.18975000000	1097.83545603576	0.0146354190000000
2343.54199000000	1094.92828233931	-0.00773484599999996
2340.28154000000	1092.16358510475	0.00431032200000003
2335.78625000000	1089.96412765579	0.0439465120000000
2332.26498000000	1087.73876902288	0.0367160880000000
2326.16273000000	1085.16167906309	0.0140658270000000
2321.75751000000	1082.28580784650	-0.00442585500000003
2318.56299000000	1079.52324577835	0.00342100899999998
2314.29679000000	1077.33692364954	0.0397406400000000
2307.64629000000	1075.11135421449	0.0325760429999999
2301.66741000000	1072.59519451892	0.0184396520000000
2298.38484000000	1069.72056292113	-0.0100173860000000
2295.87892000000	1066.94350713159	0.000615841000000006
2292.69379000000	1064.80906792546	0.0398543259999999
2288.19895000000	1062.63935216278	0.0343960010000000
2284.69623000000	1060.11877812979	0.0126303150000000
2281.05113000000	1057.30098433164	-0.0113186510000001
2275.90747000000	1054.63331720472	0.00321577799999995
2271.04967000000	1052.47535778610	0.0405591789999999
2268.21074000000	1050.27841325802	0.0345097470000000
2266.56217000000	1047.80306273152	0.00998672199999995
2261.32754000000	1044.94751676232	-0.0110675290000000
2254.23004000000	1042.30556188188	-0.00205302200000002
2247.71230000000	1040.15790469942	0.0351694230000000
2244.01491000000	1038.00127346407	0.0330765590000000
2241.06602000000	1035.54153425295	0.00925737399999993
2235.60588000000	1032.69570586457	-0.0110903550000000
2228.48157000000	1029.95323300136	-0.00401512500000001
2224.72271000000	1027.79204033222	0.0339410190000000
2224.32708000000	1025.62736700164	0.0309606000000000
2220.59169000000	1023.13389189042	0.0112174509999999
2214.81195000000	1020.33000688636	-0.0130995120000000
2208.60063000000	1017.67490367997	-0.00707296499999999
2204.29219000000	1015.57782344630	0.0353058760000000
2200.39275000000	1013.39003618530	0.0325988100000000
2194.87607000000	1010.99721855631	0.00884709100000003
2187.99693000000	1008.17669650507	-0.0113871310000000
2183.22652000000	1005.54372239217	-0.00184773199999999
2180.29997000000	1003.47556666335	0.0316887259999999
2175.82815000000	1001.44158758125	0.0287305080000000
2170.62459000000	999.077577900970	0.00980440799999993
2165.83406000000	996.336156693508	-0.0159539980000000
2163.17326000000	993.798125479260	-0.00218992200000001
2159.90253000000	991.820047818304	0.0303234820000000
2154.94818000000	989.735290305157	0.0293677160000000
2148.73730000000	987.382046211351	0.00880152800000000
2144.85128000000	984.700657970015	-0.0173471950000000
2139.41706000000	982.178673376924	-0.0109305390000000
2134.99866000000	980.216981770677	0.0273649659999999
2130.38313000000	978.220938908264	0.0267731730000000
2126.66450000000	975.893367175569	0.00449272599999995
2123.96996000000	973.246487774600	-0.0166163270000000
2120.56848000000	970.757552247525	-0.00716427100000006
2117.46828000000	968.846899667822	0.0295952960000000
2117.74762000000	966.887096653751	0.0231990840000000
2118.93594000000	964.646629117932	0.00916621699999998
2116.12539000000	962.060710680322	-0.0197457160000000
2110.44779000000	959.595940059540	-0.00771202000000004
2106.79845000000	957.691317349318	0.0295042580000000
2103.34780000000	955.817384048882	0.0314384390000000
2100.47177000000	953.611734540532	0.00909782599999998
2097.32754000000	951.092063529038	-0.0164564520000000
2093.66814000000	948.773064897659	-0.00335345200000003
2089.30070000000	947.041469582024	0.0335543080000000
2087.66241000000	945.284528507947	0.0261130500000000
2082.29458000000	943.220678400689	0.00786691900000003
2072.29046000000	940.803291439537	-0.0144010750000000
2063.09966000000	938.516139092745	-0.00422050500000004
2058.49285000000	936.765477735423	0.0327125550000000
2054.77936000000	935.024644940234	0.0300959310000000
2047.96861000000	932.645176756459	0.00766174799999997
2039.52922000000	930.924181463498	-0.0140128740000001
2033.25845000000	928.979181545140	-0.00392387800000005
2030.40365000000	926.591877268514	0.0342140140000000
2025.31587000000	924.313528793466	0.0306192740000000
2014.24141000000	922.489493755697	0.0115820799999999
2004.91852000000	920.808520545162	-0.0118209250000000
1997.36173000000	918.920872928983	-0.00417485200000001
1992.27104000000	916.569977702861	0.0327580600000000
1987.79743000000	914.319731149374	0.0344869799999999
1982.69288000000	912.491980426106	0.0120606340000000
1978.48032000000	910.763999452685	-0.00924128199999996
1975.34973000000	908.895627541250	0.00371745599999995
1971.80990000000	906.528347715797	0.0424916599999999
1967.06496000000	904.258698688318	0.0405137040000000
1962.32628000000	902.444122276660	0.0197606440000000
1958.44115000000	900.785233620204	-0.00415202500000000
1955.30027000000	898.903876695680	0.00412788799999997
1951.37938000000	896.526624839122	0.0395132380000000
1947.00858000000	894.359602794481	0.0398770629999999
1943.94504000000	892.571108333646	-0.00298840600000005
1940.00313000000	890.943692994574	0.0405137040000000
1935.38224000000	889.067784912412	0.0252935880000000
1932.30238000000	886.768497403125	-0.00451713100000006
1935.81621000000	884.540316493321	0.00234920199999999
1946.58441000000	882.777022163525	0.0322575140000000
1964.87115000000	881.155642988847	0.0414913430000000
1993.34770000000	879.351639614516	0.0274332370000000
2014.71471000000	877.089275985806	-0.00376415200000002
2021.44113000000	874.905792087171	0.00255443300000002
2039.60562000000	873.140951400575	0.0303462489999999
2048.40277000000	871.559663370162	0.0366933210000000
2006.68892000000	869.734886877418	0.0270462880000000
1885.31163000000	867.516043338225	-0.00652524600000004
1779.59565000000	865.372542404770	-0.000410580000000049
1763.68666000000	863.672126260787	0.0295497920000000
1782.01944000000	862.125053522787	0.0396269240000000
1761.75801000000	860.379834181058	0.0245195699999999
1765.36080000000	858.212410118415	-0.00885325999999997
1797.96875000000	856.158838158367	0.00476634700000000
1826.98237000000	854.551385031153	0.0296408000000000
1850.62417000000	853.076190387650	0.0400816979999999
1861.24776000000	851.430367769612	0.0232446180000000
1871.69881000000	849.293501644205	-0.00529293799999997
1879.77384000000	847.233470236966	-0.000935234000000063
1879.55410000000	845.588925971010	0.0296863050000000
1874.56220000000	844.123493485797	0.0388537999999999
1868.51269000000	842.444388426134	0.0264089610000000
1862.32752000000	840.293685921288	-0.00444868100000007
1853.26479000000	838.305030872356	0.000433377999999984
1846.42185000000	836.706327576674	0.0279794660000000
1843.43117000000	835.281486052444	0.0399225370000000
1840.96683000000	833.648694518104	0.0234267539999999
1837.94127000000	831.580177089375	-0.00314813199999997
1834.08341000000	829.653282495484	0.00150536300000004
1832.78439000000	828.158065806548	0.0306875450000000
1829.52886000000	826.797182585673	0.0406273899999999
1825.34982000000	825.167484058631	0.0271600930000000
1822.69394000000	823.118090124341	-0.00127739500000001
1821.64100000000	821.159667770864	0.00595195900000001
1819.87308000000	819.684293928299	0.0353513799999999
1815.60353000000	818.317978688634	0.0439010380000000
1811.54072000000	816.769180615892	0.0322802810000000
1808.23512000000	814.709620267367	-0.000729913999999998
1805.81860000000	812.806728623948	0.00403670099999998
1803.74606000000	811.289777808052	0.0313929340000000
1800.11415000000	809.956695362674	0.0430599710000000
1797.05731000000	808.383040905996	0.0285711989999999
1795.43042000000	806.335180771883	-0.00314813199999997
1795.79290000000	804.432683758874	0.00729702899999996
1794.31218000000	802.925722238046	0.0329627840000000
1789.60211000000	801.600228370687	0.0442874510000000
1786.41586000000	800.059726899277	0.0301869400000000
1786.60737000000	798.012458251489	0.000866754999999997
1786.62522000000	796.119799152933	0.00996395500000002
1783.48434000000	794.565332727489	0.0384217339999999
1779.69286000000	793.209226979447	0.0471284070000000
1779.50866000000	791.585546466474	0.0289808560000000
1780.38966000000	789.502617380008	0.000729884999999930
1779.20463000000	787.526877922525	0.00645351799999994
1775.26564000000	785.991818824642	0.0383307560000000
1773.64411000000	784.588904516440	0.0453557410000000
1772.76729000000	783.045477333551	0.0329627840000000
1772.47649000000	780.917446819427	-0.00134584500000001
1771.65867000000	778.937138162032	0.00875590400000004
1770.54538000000	777.331675667967	0.0341685400000000
1769.64643000000	775.892040542247	0.0461739220000000
1770.69104000000	774.251826189228	0.0299138850000000
1770.73012000000	772.187184850692	-0.00196177500000005
1770.82664000000	770.226621538869	0.00738821599999995
1770.27680000000	768.620706743668	0.0334405620000000
1771.00090000000	767.170401246152	0.0452875590000000
1771.44362000000	765.576557923948	0.0307330790000000
1771.69726000000	763.543848738439	-0.00330782900000004
1771.43909000000	761.590835568967	0.00665868900000000
1771.97456000000	760.018438184336	0.0288898180000000
1772.36297000000	758.697773738516	0.0418551090000000
1772.14034000000	757.157190105170	0.0237910560000000
1771.54289000000	755.147899840595	-0.00709579100000002
1771.89263000000	753.239120487877	-0.000296536999999986
1773.40838000000	751.692016328575	0.0287532750000000
1771.95090000000	750.402715633997	0.0373074040000000
1768.21887000000	748.920406145444	0.0277063519999999
1764.74050000000	746.966257257255	-0.0115241200000000
1762.31907000000	745.051556504657	-0.00203022500000005
1760.44343000000	743.591144480482	0.0226298800000000
1755.14086000000	742.276700591383	0.0334177950000000
1748.11533000000	740.769946762787	0.0198062070000000
1741.49389000000	738.803285434081	-0.00876195300000005
1735.18668000000	736.986296017998	-0.00216709500000001
1726.85167000000	735.520412687093	0.0211497870000000
1716.03334000000	734.265009952444	0.0312564220000000
1705.70224000000	732.840749014763	0.0214458180000000
1697.62984000000	730.927433407320	-0.00807721500000003
1688.42719000000	729.183468709764	-0.00310250899999998
1677.71145000000	727.773261328600	0.0219467810000000
1668.02135000000	726.594839257663	0.0384672380000000
1661.80892000000	725.187681217397	0.0235861230000000
1656.31101000000	723.380055703527	-0.00791742900000003
1649.53088000000	721.656987599319	-0.00155116499999997
1641.52776000000	720.319507430265	0.0222427820000000
1636.42276000000	719.149466530492	0.0391721509999999
1631.61390000000	717.830192854632	0.0260902829999999
1626.27669000000	715.945457073666	-0.00561242000000006
1620.56355000000	714.249501937259	-0.00330782900000004
1617.26935000000	712.961574178245	0.0266593680000000
1615.15635000000	711.831387747208	0.0361474790000000
1612.48706000000	710.551545403358	0.0231080160000000
1609.91924000000	708.785254539190	-0.00780329600000007
1608.43494000000	707.118804817120	0.00184746400000002
1608.72881000000	705.838443541037	0.0249520830000000
1608.02565000000	704.741726890347	0.0387401140000000
1604.37743000000	703.409275471900	0.0272739279999999
1600.31305000000	701.687160336556	-0.00556679700000007
1596.67823000000	700.054846926923	0.00540477600000000
1594.47226000000	698.776424549082	0.0273649659999999
1590.41704000000	697.714387975442	0.0425825790000000
1584.37245000000	696.503574862137	0.0271373560000000
1579.72228000000	694.820252525973	0.000205290999999996
1579.35839000000	693.205768839651	0.00554155700000003
1576.99417000000	692.024636571482	0.0309606000000000
1572.27047000000	691.016273846023	0.0419005830000000
1568.30420000000	689.791134098865	0.0317569679999999
1567.92668000000	688.069836815704	-0.00616011000000005
1567.99325000000	686.448271466174	0.00611153600000003
1564.94378000000	685.251940356849	0.0330310550000000
1558.31809000000	684.207648414875	0.0433327569999999
1554.34781000000	682.990977617060	0.0331675670000000
1553.64174000000	681.306844932312	0.000524624999999945
1552.16013000000	679.699430335744	0.00688668699999995
1547.75491000000	678.439747581678	0.0323485219999999
1544.35745000000	677.419965886270	0.0443783700000000
1543.25221000000	676.146175005935	0.0284801610000000
1543.43701000000	674.389821845519	0.00228078200000004
1541.40805000000	672.732638663973	0.00798090299999998
1536.94070000000	671.513562285996	0.0313019260000000
1532.66109000000	670.491640382521	0.0455148420000000
1529.07321000000	669.263482407961	0.0354196210000000
1526.21864000000	667.534240033538	0.00371745599999995
1520.88500000000	665.868857445669	0.00802649599999994
1516.40379000000	664.629029044285	0.0366478460000000
1514.98766000000	663.582012082666	0.0479692060000000
1514.31624000000	662.353697004249	0.0333495540000000
1510.88481000000	660.652316958240	6.84499999999977e-05
1507.38566000000	659.048933489961	0.00643072099999997
1504.24121000000	657.895763483950	0.0345097470000000
1502.37853000000	656.907843557303	0.0444465520000000
1499.10355000000	655.737495020791	0.0327807970000000
1494.84294000000	654.125858116328	0.00141414600000001
1490.42811000000	652.583233101956	0.00624834699999999
1487.69981000000	651.499436308430	0.0291629019999999
1483.61532000000	650.603166742843	0.0449466210000000
1478.47188000000	649.551605262662	0.0278429240000000
1474.39051000000	648.021085507787	-0.00453992800000003
1472.85168000000	646.590460083410	0.00177904399999995
1471.39689000000	645.530837755612	0.0307103120000000
1467.06342000000	644.736704045071	0.0436510179999999
1462.01564000000	643.759135339206	0.0297318390000000
1458.86157000000	642.284453937747	-0.00387822500000001
1456.36706000000	640.890026365250	9.12469999999610e-05
1452.59055000000	639.938771052728	0.0281843090000000
1447.19791000000	639.181764713288	0.0408320249999999
1443.11095000000	638.227954896024	0.0285711989999999
1440.48591000000	636.829301535129	-0.00317092900000004
1440.85555000000	635.477543285485	0.00307896699999999
1436.18303000000	634.526844320738	0.0328263010000000
1429.61120000000	633.790503724945	0.0436510179999999
1425.72327000000	632.973553761491	0.0313246630000000
1425.40597000000	631.614335982104	0.00171062399999999
1423.04723000000	630.405748853147	0.00604314600000000
1416.80539000000	629.520902443324	0.0363749110000000
1412.89578000000	628.857341121681	0.0486963189999999
1410.46284000000	628.043507706444	0.0381943330000000
1408.00061000000	626.731796548629	0.00608874000000004
1405.11329000000	625.499541178028	0.0124935939999999
1400.43774000000	624.718967538261	0.0369889940000000
1397.41006000000	624.126976105333	0.0545118520000000
1395.82977000000	623.379131057555	0.0421506620000000
1392.94446000000	622.095466557327	0.00884709100000003
1388.59008000000	620.898352700237	0.0139518730000000
1384.00863000000	620.070651324928	0.0432645760000000
1380.97715000000	619.491968338641	0.0560561629999999
1378.51359000000	618.676640217942	0.0428099210000000
1374.98571000000	617.431364461768	0.0129949149999999
1372.52684000000	616.218574126739	0.0158884380000000
1371.13652000000	615.384150755733	0.0424007120000000
1369.27529000000	614.782104802752	0.0565330180000000
1365.50961000000	614.019772444827	0.0510364900000000
1362.69135000000	612.816524952493	0.0147493140000000
1360.96422000000	611.653849141873	0.0245651040000000
1358.91144000000	610.914660955444	0.0459466390000000
1356.61282000000	610.324115391441	0.0605516880000000
1352.94347000000	609.590632552430	0.0504230930000000
1350.43699000000	608.378632770292	0.0170957740000000
1350.13289000000	607.174783128264	0.0221744810000000
1346.93356000000	606.348623721445	0.0520814770000000
1341.84588000000	605.761648078541	0.0645236910000000
1338.50262000000	604.964924076978	0.0540349080000000
1337.09933000000	603.698536432728	0.0181891260000000
1336.19289000000	602.529256808423	0.0237454920000000
1332.47728000000	601.708219292223	0.0481737210000000
1327.22175000000	601.095714771208	0.0646371689999999
1325.19915000000	600.364488814016	0.0487645000000000
1323.50174000000	599.118813883533	0.0199656060000000
1321.51826000000	597.925446070887	0.0219240140000000
1318.66513000000	597.162262526603	0.0469465990000000
1316.46619000000	596.561449308219	0.0622995300000000
1314.64071000000	595.815986086903	0.0515135540000000
1313.10110000000	594.532799951008	0.0219923150000000
1310.69922000000	593.436946973836	0.0244968030000000
1307.45496000000	592.713598507415	0.0525357740000000
1304.56518000000	592.194031603582	0.0623222380000000
1302.49341000000	591.399822609714	0.0526947850000000
1299.31979000000	590.148510528493	0.0206715610000000
1296.64256000000	589.079993690383	0.0210131560000000
1294.49614000000	588.448612593032	0.0459921140000000
1293.73251000000	587.893051737002	0.0618001770000000
1290.87022000000	587.057073618432	0.0477192460000000
1287.90311000000	585.799517104901	0.0162757150000000
1285.36020000000	584.680735626064	0.0225387820000000
1282.55267000000	583.976865182643	0.0455602860000000
1278.97451000000	583.436556167567	0.0593258170000000
1273.51269000000	582.655008527968	0.0513090979999999
1267.31019000000	581.415278437166	0.0168907810000000
1264.58401000000	580.332032210664	0.0201705690000000
1262.12447000000	579.692856102400	0.0486508740000000
1257.54257000000	579.139747853645	0.0593485240000000
1253.43561000000	578.333127598489	0.0496051800000000
1250.35563000000	577.084024290381	0.0136328970000000
1249.80165000000	576.020470905347	0.0259081770000000
1249.61801000000	575.312663077938	0.0505593970000000
1247.25703000000	574.762659370043	0.0640244270000000
1243.76201000000	573.976515999085	0.0456284680000000
1241.05684000000	572.798095076903	0.0150227260000000
1240.05385000000	571.704604052529	0.0270007839999999
1236.74769000000	571.037563596400	0.0559653030000000
1231.82964000000	570.469285053646	0.0609148870000000
1227.91467000000	569.728979037860	0.0421279250000000
1228.26921000000	568.521182155583	0.0138835429999999
1229.54614000000	567.410361759289	0.0229258810000000
1225.72973000000	566.754043500563	0.0504003860000000
1221.09643000000	566.247884568197	0.0611873159999999
1218.63264000000	565.500731187734	0.0450148020000000
1218.78737000000	564.336297637811	0.0143392099999999
1216.89999000000	563.299793145939	0.0245651040000000
1212.68441000000	562.649308298917	0.0539894630000000
1208.94443000000	562.121047062941	0.0596209240000000
1207.21998000000	561.394085425613	0.0426280540000000
1204.96450000000	560.197871977516	0.0129949149999999
1201.08461000000	559.141306697984	0.0251569859999999
1197.70380000000	558.519265487636	0.0486963189999999
1196.83915000000	558.061246968052	0.0590987730000000
1194.37626000000	557.348854114652	0.0432645760000000
1191.05490000000	556.168551154012	0.0169818790000000
1188.67626000000	555.129560140399	0.0224477140000000
1188.11245000000	554.538320625178	0.0506957310000000
1186.68972000000	554.013282347658	0.0571688240000000
1184.07574000000	553.327701456454	0.0456057310000000
1181.57932000000	552.129753696823	0.0143164430000000
1179.17900000000	551.088552001121	0.0205804940000000
1179.29798000000	550.490706653613	0.0506957310000000
1178.27308000000	550.024474057763	0.0605971030000000
1175.49103000000	549.302826462640	0.0444465520000000
1174.54369000000	548.147398103234	0.0165035040000000
1178.20469000000	547.067635007020	0.0248382779999999
1183.22011000000	546.446433457095	0.0504003860000000
1182.45201000000	545.933425411409	0.0584403480000000
1178.39489000000	545.260518784021	0.0451057210000000
1176.55981000000	544.136713117120	0.0137012580000000
1177.10768000000	543.099757615418	0.0228120159999999
1178.05629000000	542.491871264683	0.0516044130000000
1176.88142000000	542.047653991764	0.0624357150000000
1173.92459000000	541.382404215001	0.0454011850000000
1172.63820000000	540.309966770508	0.0140885940000000
1172.32716000000	539.316378286049	0.0233129190000000
1170.18320000000	538.759511400424	0.0529900700000000
1162.15806000000	538.351171173253	0.0573050690000000
1157.75809000000	537.706059991650	0.0465148310000000
1156.63553000000	536.573435778707	0.0122429190000000
1156.00846000000	535.580639329793	0.0224932480000000
1151.39460000000	534.990845622096	0.0518770210000000
1145.24217000000	534.605873632098	0.0605516880000000
1143.62008000000	533.974204455040	0.0434464130000000
1143.04844000000	532.894297938602	0.0144075710000000
1139.30020000000	531.968396356558	0.0192595910000000
1131.34613000000	531.414202577437	0.0496506250000000
1124.14347000000	531.046331212349	0.0567601209999999
1119.88319000000	530.392867982035	0.0460148210000000
1114.56038000000	529.300033909423	0.0158428740000000
1109.64301000000	528.346571564731	0.0214458180000000
1107.48899000000	527.804147273812	0.0498778180000000
1105.37208000000	527.407159264956	0.0606879020000000
1102.80704000000	526.796191516569	0.0458784580000000
1100.59111000000	525.746849559868	0.0186218770000000
1098.39262000000	524.852450446595	0.0236999580000000
1097.18378000000	524.327950603437	0.0526493400000000
1095.56639000000	523.973347037190	0.0624584220000000
1093.30397000000	523.384928417645	0.0466057200000000
1089.77453000000	522.310959232372	0.0139974669999999
1088.16027000000	521.358555511704	0.0231307829999999
1086.89757000000	520.808021556554	0.0498323730000000
1085.64626000000	520.405006572306	0.0633889780000000
1082.59713000000	519.825838717146	0.0468784170000000
1081.30202000000	518.779892033232	0.0168907810000000
1085.81277000000	517.855770290166	0.0269780170000000
1096.98941000000	517.327613505983	0.0516044130000000
1114.07271000000	516.950314304644	0.0639336570000000
1145.96757000000	516.348411623230	0.0448329640000000
1176.42042000000	515.308755779142	0.0154328000000000
1186.14855000000	514.360174618444	0.0245423370000000
1201.60656000000	513.793713903801	0.0517861620000000
1218.31437000000	513.356104272229	0.0613916230000000
1199.18866000000	512.721580698344	0.0470602250000000
1091.05429000000	511.621261762160	0.0177335770000000
963.388489999999	510.655929437682	0.0278884280000000
919.120359999999	510.121553439865	0.0523994990000000
941.173409999999	509.697200063508	0.0636386099999999
936.785730000000	509.085110005592	0.0479919129999999
934.209069999999	507.947377071633	0.0155239280000000
973.202739999999	506.994975427554	0.0234495210000000
1007.67859000000	506.438383198809	0.0500823029999999
1035.00467000000	506.017776477733	0.0598252600000000
1046.93159000000	505.334049065158	0.0480146499999999
1056.68878000000	504.319502851248	0.0167996539999999
1068.76970000000	503.360446330054	0.0247472100000000
1072.78227000000	502.783611965608	0.0509910459999999
1072.67596000000	502.413682590967	0.0609603020000000
1068.56006000000	501.827279169696	0.0459239320000000
1060.07451000000	500.790049485993	0.0166401960000000
1054.83955000000	499.836731132857	0.0225387820000000
1049.49864000000	499.348454283965	0.0478555790000000
1046.32524000000	499.052136377600	0.0563513590000000
1043.81429000000	498.558662170780	0.0431509190000000
1041.05526000000	497.579483913653	0.0119922729999999
1039.04584000000	496.727077519786	0.0208082230000000
1038.54058000000	496.302444475352	0.0493779570000000
1037.18491000000	496.052197392655	0.0566238470000000
1033.30435000000	495.593815646294	0.0440374310000000
1032.15005000000	494.678065818050	0.00889268499999996
1031.59987000000	493.853389725042	0.0210587190000000
1031.74231000000	493.508823077299	0.0472874780000000
1028.08503000000	493.284951395301	0.0562605290000000
1023.84822000000	492.837567793492	0.0386491360000000
1022.12064000000	491.959438983778	0.0164807370000000
1021.87508000000	491.169544074221	0.0200111700000000
1021.96322000000	490.765260460573	0.0453330040000000
1018.77462000000	490.514202633625	0.0590306509999999
1015.76504000000	490.098950047342	0.0445374700000000
1014.95582000000	489.233805870940	0.0143847739999999
1015.61701000000	488.436379143654	0.0198062070000000
1013.41270000000	488.091375298305	0.0506502860000000
1009.25389000000	487.898046095329	0.0633662710000000
1008.11657000000	487.554386401712	0.0501731930000000
1008.93555000000	486.700035254285	0.0177107800000000
1007.91535000000	485.952627102104	0.0259992450000000
1003.91701000000	485.593729741597	0.0543755780000000
1001.70264000000	485.404935148871	0.0659306250000000
1003.79557000000	485.001076893136	0.0520133250000000
1004.97260000000	484.133293322033	0.0214458180000000
1004.15086000000	483.427103805294	0.0273649659999999
1003.29404000000	483.068040767341	0.0592349879999999
1001.57182000000	482.937611855847	0.0672239630000000
1002.38298000000	482.597141709380	0.0522859030000000
1001.24343000000	481.764729885196	0.0234950850000000
1000.23194000000	481.057288146452	0.0292311730000000
1000.17055000000	480.762719693140	0.0548071080000000
1000.97277000000	480.615251446203	0.0649548640000000
999.439409999999	480.276493079427	0.0539667560000000
999.158990000000	479.477191980831	0.0239048610000000
999.783969999999	478.805489769246	0.0282753470000000
1002.87259000000	478.538675875868	0.0583041340000000
1005.04307000000	478.434524779124	0.0683583480000000
1006.62754000000	478.092015369921	0.0583041340000000
1004.41161000000	477.337087224791	0.0242008320000000
1005.56025000000	476.639676702837	0.0311881509999999
1006.52272000000	476.358181694596	0.0569644579999999
1007.32516000000	476.242124884936	0.0682449010000000
1006.84024000000	475.921097434925	0.0538758970000000
1008.20143000000	475.153838266163	0.0228803170000000
1010.18305000000	474.511696269637	0.0335088040000000
1011.27135000000	474.252539298077	0.0565330180000000
1009.94115000000	474.152286429756	0.0717155240000000
1007.84949000000	473.838520725577	0.0576910640000000
1007.72284000000	473.073388850956	0.0248382779999999
1006.72387000000	472.452475671977	0.0330310550000000
1002.63501000000	472.220250012206	0.0604381810000000
998.339639999998	472.162148926486	0.0701958280000000
992.440649999999	471.862207332064	0.0574186060000000
989.578809999999	471.111569075092	0.0266593680000000
983.680499999999	470.455637144971	0.0350329100000000
973.763649999999	470.190944926594	0.0619136539999999
963.538160000000	470.061706942289	0.0727134269999999
955.066690000000	469.734653214415	0.0568055359999999
948.603359999999	468.969526179666	0.0292539400000000
940.034229999999	468.305293658475	0.0329627840000000
930.325460000000	467.985350364588	0.0605743950000000
923.970539999998	467.839500794946	0.0715567510000000
917.588790000000	467.510501763827	0.0578727230000000
912.177259999999	466.721905623021	0.0280705040000000
905.081429999998	466.019943535256	0.0362839320000000
900.379289999999	465.691399945906	0.0617093770000000
896.690719999999	465.593811519686	0.0722598449999999
894.066239999998	465.298009169822	0.0580089680000000
891.013970000000	464.491716362219	0.0278656610000000
887.740660000000	463.812387744070	0.0373528780000000
883.166589999999	463.526823331330	0.0631620230000000
881.032009999999	463.409460767977	0.0747316720000000
877.420099999999	463.102422994581	0.0585993000000000
872.938999999999	462.346344501924	0.0285029280000000
870.950379999998	461.653601014722	0.0346917330000000
870.291569999999	461.404757193215	0.0606651950000000
868.315680000000	461.305963579274	0.0696514170000000
864.335889999999	460.974882770896	0.0564421880000000
862.521589999999	460.188604915770	0.0271828600000000
863.950059999999	459.528552445214	0.0337817990000000
863.422229999998	459.246872474885	0.0566238470000000
861.412359999998	459.166736344966	0.0681768380000000
857.850740000000	458.821918710155	0.0559425960000000
856.456619999999	458.058431947773	0.0252480240000000
855.849899999999	457.367178703388	0.0308923590000000
853.982399999999	457.135166763747	0.0556700780000000
850.605619999999	457.028659589521	0.0710124000000000
847.707119999999	456.681684790673	0.0577818940000000
850.641299999999	455.892124820429	0.0236999580000000
850.309029999999	455.213789654790	0.0320300230000000
846.973590000000	454.899623764034	0.0581678900000000
843.547409999999	454.772494682054	0.0693338120000000
843.481780000000	454.432175095831	0.0566692620000000
842.254390000000	453.672136775961	0.0266821050000000
841.465059999999	452.973402808749	0.0307785830000000
837.476330000000	452.675731779729	0.0602565810000000
834.789709999999	452.520119448836	0.0702185060000000
834.431069999999	452.157824007884	0.0547162480000000
834.972019999999	451.345063554306	0.0243146670000000
833.617460000000	450.614244589101	0.0325988100000000
831.877810000000	450.338133074401	0.0577137719999999
829.909739999999	450.188698046357	0.0711031400000000
829.285129999998	449.864253364289	0.0534443670000000
826.214090000000	449.140204895880	0.0254756939999999
823.730409999998	448.416939772876	0.0301641730000000
821.663779999999	448.129964449357	0.0606651950000000
821.257089999999	448.073503013096	0.0689935590000000
819.551630000000	447.798966874131	0.0529446550000000
818.068340000000	447.032268973302	0.0233812200000000
817.608670000000	446.357282413291	0.0306647780000000
817.513089999999	446.072724467103	0.0548298150000000
814.889499999999	445.972059442277	0.0672466400000000
809.857919999999	445.690848080697	0.0530127780000000
804.968929999999	444.943074094467	0.0249748800000000
803.488759999998	444.233020283355	0.0289353219999999
802.670160000000	444.058998529702	0.0555565410000000
800.617380000000	443.385291457067	0.0649775710000000
797.090409999999	442.721459533531	0.0511727940000000
793.933770000000	442.465055337059	0.0210814860000000
792.477069999999	442.444171925481	0.0264089610000000
791.789659999999	442.231032392226	0.0566011399999999
788.704979999999	441.588855447297	0.0650002780000000
784.446269999999	440.948964499600	0.0533080929999999
783.809809999999	440.678932741277	0.0266138339999999
784.722660000000	440.659787309206	0.0265455330000000
781.603789999999	440.427263995932	0.0555111260000000
776.936290000000	439.721657309913	0.0708309490000000
774.689300000000	439.144784272424	0.0562832369999999
775.230909999998	438.905144646302	0.0234267539999999
774.924349999999	438.890428145995	0.0294132200000000
771.415250000000	438.685481100989	0.0553294370000000
766.959400000000	437.994465898668	0.0675415980000000
768.148710000000	437.349555601729	0.0554884190000000
767.893080000000	437.109630331867	0.0243374340000000
766.096869999999	437.071498676036	0.0267276390000000
762.901779999998	436.853724820283	0.0623449149999999
760.055569999999	436.148846054194	0.0290035930000000
759.126539999999	435.557007769107	0.0295497920000000
757.847280000000	435.296010241780	0.0566011399999999
755.423260000000	435.251858763332	0.0722598449999999
753.304989999999	435.072342085722	0.0594392940000000
753.595149999999	434.337762514283	0.0308013210000000
754.085349999999	433.718707348124	0.0308468250000000
752.044849999998	433.405741911944	0.0553975890000000
750.089739999999	433.361886732151	0.0720783950000000
749.643020000000	433.124083698376	0.0578500160000000
748.529600000000	432.435346139669	0.0262724190000000
744.808610000000	431.807388044346	0.0347372080000000
742.016039999999	431.574828838528	0.0571234100000000
742.191989999999	431.543711839580	0.0720783950000000
742.810930000000	431.330544140971	0.0593939090000000
740.499099999999	430.651406056014	0.0269552500000000
736.891200000000	430.004007630731	0.0299138850000000
734.698279999999	429.778676130075	0.0568055359999999
736.669160000000	429.775520554596	0.0702185060000000
735.315259999999	429.580391353204	0.0582360120000000
731.567229999999	428.910061865544	0.0257261009999999
729.737939999999	428.331520453568	0.0331448000000000
729.667819999999	428.052450848686	0.0551023340000000
730.472930000000	427.957979231448	0.0695152920000000
730.853159999999	427.752743288278	0.0604835960000000
726.476869999999	427.069222539136	0.0234495210000000
724.753739999998	426.436230232644	0.0310288710000000
725.481300000000	426.145537355465	0.0513318060000000
726.472580000000	426.138864547819	0.0692203940000000
724.530419999999	425.986528491358	0.0562832369999999
722.428689999999	425.301271574385	0.0261813510000000
720.885259999999	424.663135055059	0.0301186689999999
721.342600000000	424.409578739516	0.0563740659999999
719.763190000000	424.426633323057	0.0697648350000000
717.995809999999	424.289127848391	0.0576229420000000
715.908829999999	423.648056248065	0.0265227660000000
716.259109999999	423.052961280060	0.0285256950000000
715.561179999999	422.819778266352	0.0565557249999999
714.256669999999	422.806098087088	0.0713299450000000
711.658770000000	422.637565830557	0.0585311780000000
711.547530000000	422.005056193442	0.0268186779999999
710.976989999999	421.423620365475	0.0328263010000000
709.225259999999	421.202000396603	0.0526947850000000
707.663499999999	421.253258290667	0.0649548640000000
705.409790000000	421.132188485045	0.0575548499999999
702.474619999999	420.463832430907	0.0256350330000000
701.324999999999	419.812510205032	0.0288898180000000
700.264330000000	419.612966246036	0.0516044130000000
701.185210000000	419.606612758881	0.0704906960000000
701.322049999999	419.461393135605	0.0607787020000000
700.170639999999	418.809159727955	0.0252252869999999
697.293360000000	418.200546992292	0.0282525800000000
694.440219999999	418.001962403137	0.0537850370000000
694.477830000000	417.999631395395	0.0717835569999999
696.309469999998	417.876811822893	0.0614823919999999
694.111629999999	417.250726925832	0.0278884280000000
690.167360000000	416.666826921128	0.0308468250000000
689.810050000000	416.433918083267	0.0548752299999999
690.445519999999	416.467484825267	0.0694699370000000
689.630249999998	416.378110555220	0.0591441880000000
685.606860000000	415.737331381788	0.0281843090000000
683.809309999999	415.144580725521	0.0314839430000000
683.998899999999	414.925012075091	0.0553748820000000
683.681149999999	414.998405515708	0.0735298490000000
680.304119999999	414.953887766885	0.0620498680000000
675.400589999999	414.329638758434	0.0255439650000000
675.038129999999	413.743816638349	0.0265683000000000
675.155980000000	413.545118914395	0.0565784330000000
672.975799999998	413.544387934338	0.0694245820000000
667.686729999999	413.441544854449	0.0601657820000000
663.732849999999	412.784196611143	0.0263406899999999
664.807279999999	412.184482615942	0.0291401649999999
665.272659999999	411.910291473183	0.0563740659999999
662.074439999999	411.960256067149	0.0694245820000000
659.184640000000	411.902220645638	0.0613916230000000
659.288859999999	411.209783916471	0.0278201570000000
661.252359999999	410.588396682064	0.0305282660000000
661.337799999999	410.375434385527	0.0538304820000000
660.866279999998	410.380235674777	0.0715567510000000
661.133640000000	410.312528985795	0.0633662710000000
663.227669999998	409.690650497129	0.0265910670000000
663.288530000000	409.119824627933	0.0296863050000000
665.300089999999	408.973545286065	0.0544664370000000
668.460659999999	409.011790280808	0.0739606939999999
671.919829999999	408.954989407482	0.0661121650000000
670.607500000000	408.354253853983	0.0274560040000000
667.735579999999	407.747507388633	0.0299138850000000
665.587809999999	407.558331494943	0.0556246630000000
666.515169999999	407.676308110305	0.0687893709999999
667.761240000000	407.649391967499	0.0619817760000000
666.637320000000	407.053964461005	0.0249976460000000
665.254589999999	406.545692204118	0.0287305080000000
663.850849999999	406.417419570844	0.0503322039999999
661.776829999999	406.523279928636	0.0718969450000000
657.312029999999	406.564921171071	0.0647052610000000
652.090230000000	406.060600235420	0.0224021799999999
646.994719999999	405.581763917420	0.0270235510000000
645.973380000000	405.482459030095	0.0541484449999999
645.863029999999	405.675326919920	0.0686305680000000
641.915859999999	405.801066187231	0.0637975020000000
636.221589999999	405.339595078980	0.0268414450000000
633.875119999999	404.905884527606	0.0301414360000000
631.921789999999	404.835165198392	0.0583495190000000
626.189080000000	405.042227746687	0.0706267920000000
619.402109999999	405.126690745143	0.0642967670000000
613.703149999999	404.645409684831	0.0280250000000000
611.826029999998	404.244470474418	0.0275242750000000
610.899910000000	404.213188950140	0.0552613150000000
608.432299999999	404.399706376999	0.0757066590000000
603.794520000000	404.520468567673	0.0660667800000000
601.513309999999	404.055372024937	0.0281615420000000
599.942610000000	403.687620866342	0.0338727780000000
596.989350000000	403.710141752379	0.0591214800000000
595.645049999999	403.974738131519	0.0747089940000000
593.794089999999	404.088738555887	0.0704453410000000
592.888079999999	403.643142015147	0.0340547940000000
592.452309999999	403.248456979431	0.0356698200000000
589.105009999999	403.304059173940	0.0608922090000000
585.044529999999	403.532961311576	0.0803538640000000
584.312399999999	403.708257218591	0.0759107270000000
584.021910000000	403.245529723181	0.0367842990000000
583.650070000000	402.855247606691	0.0385581870000000
584.741929999998	402.858407566876	0.0626854070000000
595.286940000000	403.129548287027	0.0811924270000000
614.846159999999	403.275587631987	0.0730535910000000
645.708209999999	402.834750349577	0.0353513799999999
666.804440000000	402.465273018905	0.0406273899999999
674.586539999998	402.476213112904	0.0652044960000000
694.718369999999	402.733694045827	0.0797192190000000
710.318729999999	402.870859275376	0.0753665840000000
671.454819999999	402.428985755136	0.0363294370000000
549.723150000000	402.044153028990	0.0427417099999999
449.878379999998	402.070437283061	0.0686986310000000
437.495869999999	402.350342478564	0.0848407460000000
459.191299999999	402.491525475055	0.0748450600000000
443.295819999999	402.103467069885	0.0375575720000000
437.950199999999	401.708533724055	0.0408774990000000
471.781910000000	401.735655978450	0.0708309490000000
500.627100000000	401.957596601896	0.0823935339999999
524.570269999998	402.057245586769	0.0788578879999999
535.169370000000	401.658676015325	0.0363521740000000
543.928619999999	401.317026603317	0.0411048410000000
553.966960000000	401.313817038073	0.0672693470000000
556.596720000000	401.600029071721	0.0851352570000000
554.501469999999	401.743765833953	0.0768402990000000
550.018339999999	401.343250513082	0.0377395000000000
547.226439999999	401.009548659945	0.0424234489999999
546.164199999999	401.009148719492	0.0677231080000000
542.923289999999	401.269953012640	0.0841609850000000
540.504190000000	401.379142284391	0.0761827979999999
537.526329999999	400.983630088894	0.0376030469999999
536.469690000000	400.577509028940	0.0413322130000000
535.065939999999	400.607455313565	0.0686759530000000
533.879219999999	400.876739935981	0.0855883909999999
534.052039999999	401.063428172656	0.0763868369999999
534.563919999999	400.614809996654	0.0411275780000000
533.618799999998	400.248147565328	0.0406046529999999
532.099279999999	400.207101010214	0.0686759530000000
530.628269999999	400.514086278324	0.0816683590000000
529.784169999999	400.655773116794	0.0735525270000000
528.001370000000	400.252858525570	0.0403545439999999
525.904329999999	399.885395002765	0.0440828759999999
524.556680000000	399.902776736400	0.0665886620000000
524.920150000000	400.193871279973	0.0858829010000000
525.084260000000	400.331256531101	0.0764321920000000
523.765449999999	399.928129038071	0.0401726460000000
520.841909999999	399.578185020051	0.0445602079999999
521.256780000000	399.626619554410	0.0667247880000000
522.216549999999	399.919423223666	0.0841383370000000
521.911529999999	400.104081412998	0.0740740820000000
518.401749999999	399.695381663434	0.0404454930000000
516.228499999999	399.317715017119	0.0396723990000000
517.953749999999	399.305542733196	0.0686759530000000
520.293860000000	399.594050566976	0.0846368270000000
519.367960000000	399.765240107007	0.0791752259999999
517.051219999999	399.407518757709	0.0368525410000000
518.993049999999	399.087855614837	0.0422415810000000
523.417959999999	399.127986726706	0.0638882720000000
525.027440000000	399.453635786102	0.0870835610000000
523.211340000000	399.615994634655	0.0761147660000000
522.119610000000	399.250803393034	0.0398315889999999
522.903479999999	398.936986239246	0.0421279250000000
524.925319999999	398.964562928481	0.0677231080000000
524.280589999999	399.253242707097	0.0859735220000000
523.632720000000	399.414741712641	0.0757746910000000
525.460789999999	399.049711919934	0.0397633770000000
527.099999999999	398.665131881942	0.0432418380000000
529.137929999999	398.687942493232	0.0697421570000000
530.044950000000	398.942646669218	0.0860414950000000
531.325890000000	399.130083920052	0.0788805360000000
533.898439999999	398.726885648011	0.0393540780000000
535.996490000000	398.395625182706	0.0413549200000000
535.911399999999	398.362267854238	0.0656583450000000
537.363759999998	398.603169334936	0.0857016600000000
541.285349999998	398.790434174122	0.0779284650000000
543.794199999999	398.351926480925	0.0426962350000000
544.829290000000	397.957492767766	0.0451739030000000
544.848569999998	397.953141162312	0.0691069759999999
545.941100000000	398.217157832284	0.0881481860000000
548.223759999999	398.334990039945	0.0773163790000000
549.064629999999	397.908876675006	0.0421733989999999
547.697769999999	397.497471802984	0.0455375490000000
547.748109999999	397.410861208573	0.0682449010000000
548.369279999999	397.648019300215	0.0856563640000000
547.494119999999	397.785979347131	0.0772256990000000
543.197389999999	397.302213234694	0.0421506620000000
537.105509999999	396.911423707029	0.0407865500000000
532.697929999999	396.880750867983	0.0678819100000000
528.463559999998	397.151863265262	0.0833452780000000
518.874350000000	397.270654563067	0.0789032140000000
506.258059999998	396.857091168543	0.0395587130000000
495.779769999999	396.452405616195	0.0442874510000000
489.662629999999	396.440920079139	0.0640925190000000
482.942719999999	396.658743380062	0.0823708870000000
474.122799999999	396.769581527865	0.0788352110000000
466.442499999999	396.302684371380	0.0371482140000000
462.078949999999	395.895289964946	0.0400134860000000
459.427179999999	395.873962487481	0.0659533030000000
456.092400000000	396.094221457118	0.0838437970000000
451.046279999999	396.237421797066	0.0741421140000000
448.288569999999	395.789595078293	0.0378986900000000
447.446709999998	395.344933323023	0.0388083260000000
446.201649999999	395.245989613731	0.0603927960000000
443.114280000000	395.519824494772	0.0819629580000000
440.279240000000	395.654935803630	0.0753892320000000
438.324569999999	395.216068986087	0.0339637859999999
437.022069999999	394.844471215272	0.0400816979999999
435.884300000000	394.798533383608	0.0640244270000000
433.861900000000	395.036095668087	0.0841383370000000
433.043959999999	394.657785503619	0.0740287260000000
432.816489999999	394.640228683326	0.0385581870000000
430.064820000000	394.891783390265	0.0390812020000000
428.658840000000	395.068593210892	0.0652271730000000
428.109759999999	394.675194914037	0.0805125170000000
428.420039999999	394.268112064577	0.0734164320000000
427.993890000000	394.199779981168	0.0349191950000000
424.891990000000	394.453794199606	0.0388083260000000
422.584410000000	394.600070005633	0.0644783070000000
423.589109999999	394.186011183875	0.0805805199999999
424.060749999999	393.761729076316	0.0754799420000000
423.085679999998	393.701130734248	0.0361019750000000
421.320539999999	393.982221893822	0.0362384280000000
422.650870000000	394.139538108176	0.0592122800000000
424.774850000000	393.736180578199	0.0840477159999999
423.804249999999	393.392149267604	0.0748450600000000
420.126839999999	393.349837706082	0.0366023420000000
419.536189999999	393.581498431351	0.0410138919999999
420.195360000000	393.700700408144	0.0626626990000000
421.725049999999	393.322996107191	0.0815550600000000
419.769489999999	392.905985597647	0.0405364410000000
417.229019999999	392.886675847304	0.0645236910000000
418.201529999998	393.120513076045	0.0824615370000000
419.426819999999	393.215692626846	0.0775204180000000
418.299320000000	392.722863320960	0.0395359749999999
