-2.17545959999188
-4.31892974851871
33.7046953644822
38.9643483855034
41.7373439650182
40.7795367005529
40.9602797645239
43.8726735484488
48.1692854114008
48.9020353909582
48.2484120769332
49.3354224840914
54.2223143078190
58.3294668562521
61.2834235880800
62.7231327735972
66.4080975099314
68.6689174336898
66.2355860149437
62.7752270152087
58.5931218571568
55.4634925341343
46.5779708014852
35.9661085845328
27.7182815527813
23.5091522727344
19.2760889141973
10.7108678222685
1.74783736747486
-1.64348871878246
-5.87464162498509
-12.2306197913385
-19.1169882573849
-23.1682400178252
-24.5152841891249
-25.4123683993676
-28.1025324872244
-29.7655874447846
-33.0244367575688
-35.9333399821444
-38.5313708850481
-38.4620678709543
-35.4065370795033
-35.6730358210807
-37.8277400273437
-39.2976772265720
-38.7192829594496
-36.5717306344814
-34.8124140612126
-36.3684787764178
-36.3530199999914
-35.1823260099700
-35.2819631026541
-35.9787032326749
-35.3729538750049
-35.7072466721329
-33.4941467745120
-32.4958196286680
-33.0621431103900
-31.4875421747602
-28.4130863709725
-25.4985637958234
-21.2219324615435
-18.0838941230068
-15.8823484586028
-14.6059485000005
-13.1206891518959
-13.4411384148261
-15.0868010188678
-16.6058145893367
-18.6136666874954
-19.9361206261674
-20.2853583633514
-21.7043866904023
-23.8807266666663
-24.0865950000007
-24.9022945858887
-26.2526114174325
-28.8500668536581
-31.3458933419461
-31.0820434090892
-30.3689862099673
-33.2008172891547
-36.1300052567531
-38.5488530748444
-38.7737473880552
-37.8181423214191
-37.9948972032580
-40.9421159644880
-43.2469843053004
-44.3371937646989
-47.0600066304942
-48.0634162105198
-51.8194817273979
-54.6317916453445
-56.4726292826053
-57.6647401994196
-59.1477555864512
-64.3736054827568
-67.8058385759250
-70.2907499999928
-70.9173994273442
-72.2038642840889
-72.9222497634546
-74.5173862796546
-75.6100783309812
-75.4925116011182
-75.0862386218432
-74.6564079636810
-73.9863337061252
-73.1359546666645
-71.6886706828191
-70.9100363950238
-73.2474148760266
-76.4794109670293
-77.4036405616389
-75.5967279344222
-76.3546289836449
-78.4098806576003
-78.8856120934943
-78.5758889594508
-78.7420109231753
-77.9562592741895
-77.9640820254608
-77.0511027032080
-76.8242509999946
-77.6475187978649
-78.3414008156433
-78.7185471269804
-81.3655984116012
-80.5672211842029
-79.9786173700741
-80.5781999057472
-80.3931128106997
-79.7091564062393
-79.0682596947991
-79.2799489507706
-79.4178293178229
-78.1149481391694
-78.5910826580912
-79.0105623846066
-77.5820053618845
-80.3321671224439
-82.2191906793814
-82.2375079796912
-83.8441492974635
-84.7689490605990
-85.1356667266955
-86.7284472211031
-87.4945028571347
-88.1292907499956
-88.7712142406381
-89.2926866417802
-90.9301347952787
-91.2117795148479
-90.4383561666582
-91.5324707512264
-91.5712190307058
-91.6811746617605
-91.0368779339842
-92.6532932560913
-94.6171664817448
-95.2293812475691
-97.4104938050805
-99.6199121594145
-101.244339415658
-101.342862187492
-101.452333974816
-102.483166004775
-102.530649003573
-103.234022071418
-102.973535640132
-103.487553490511
-105.086620138289
-105.475475759427
-106.671514676462
-109.672666133796
-110.886968097187
-112.403758387842
-113.990716702789
-114.024684244181
-112.822130018561
-111.191072027777
-111.053435667436
-111.733249859444
-112.469860103447
-112.425435454130
-113.003581324941
-115.160096664385
-117.033935579726
-118.935281181813
-117.496960914963
-117.335679638003
-116.582078576746
-113.912914202698
-112.066516179773
-106.293890939454
-102.631645499998
-98.1277887455290
-94.5820809554498
-93.0330669999967
-91.5000332560958
-91.7729271902608
-93.4462469602549
-92.1754919206978
-90.8261142032898
-87.8098210263088
-87.6223563150925
-88.5128621331824
-90.5468997450917
-91.8965630217317
-92.2645621691881
-92.4861083181786
-96.2365044071194
-99.8906140991312
-102.033089967732
-105.077402703853
-103.670714771939
-105.814478025630
-110.651822980799
-113.427143999990
-115.666755407634
-117.841060652532
-120.324741935510
-121.185222246826
-120.037003578938
-121.291466672257
-123.726351050307
-122.203409209196
-123.070886242163
-121.571362937491
-121.375486116416
-121.746815576749
-121.173334251544
-121.573264611558
-122.958216247411
-122.283928419743
-120.897320343931
-115.311329606549
-103.937426782199
-82.4594766122355
-46.0033978319661
-22.4026696829205
-14.2077299817320
6.18379890487267
22.1236915757690
-18.8077593145026
-145.252430996967
-247.603911313239
-258.408215522028
-233.312007599983
-247.220502000011
-244.733438700012
-207.043158600016
-175.554645900011
-151.047781500012
-141.117944700010
-130.727027400008
-121.394963700008
-119.977526700011
-120.807918600014
-122.724565200006
-127.475236500009
-132.217548900007
-137.036566500010
-139.313405700013
-139.864333200010
-141.519797700010
-142.436997000004
-144.195495000007
-141.373584000008
-139.032913200004
-137.961856500006
-138.811871700003
-142.139965500010
-141.881286600008
-140.405426700003
-141.676426500009
-143.146609500003
-144.165411900009
-144.169077300008
-143.313295800002
-143.389419900006
-145.764420300005
-148.783145400008
-149.610229500009
-149.067929100012
-151.687796100003
-151.468140300007
-151.732898400005
-151.155374400008
-149.979809100005
-150.934779900006
-152.389720200004
-151.979508299999
-151.436760900004
-152.012094600006
-152.287848900003
-152.703380100003
-152.112669600003
-151.728830700005
-151.288401600013
-149.951603400023
-149.753582400015
-147.372592200016
-145.936917600018
-142.729603200016
-140.984068200018
-141.905961000015
-142.994853000011
-142.066255200018
-142.327750200016
-140.986526700010
-140.930964600015
-140.535190800012
-138.900377700014
-138.628065300014
-137.648420100017
-136.907517600012
-138.750096300013
-141.079100400013
-144.741282000006
-150.853202400009
-158.528371200009
-168.047191500009
-175.355060400012
-183.670824900008
-193.405278000006
-204.190628100008
-212.716750800006
-218.883741600010
-224.131164000006
-227.399717400011
-232.349348400006
-238.159990800003
-241.521788400005
-243.771226500005
-246.608782500007
-251.122633200004
-254.323689600005
-254.833627200002
-254.768722800010
-256.328708100005
-258.835350000005
-259.493736300003
-260.051279400006
-260.728797300009
-261.674470500009
-262.773241200004
-264.479663700015
-264.587480100006
-265.371384000006
-265.748249700006
-268.270000200006
-269.757929100004
-269.228547000006
-267.787284900005
-266.745372600006
-267.973013400009
-268.719950400009
-268.843098900012
-268.352739900009
-269.212678500011
-270.537899400006
-271.022313300007
-267.571071000013
-266.380084200009
-265.670069400006
-264.852282900007
-265.310681400006
-265.729073400005
-265.477770000005
-263.081850000006
-262.927098600005
-263.583741600003
-265.200451200006
-264.694000200008
-264.370998000006
-263.975090100004
-264.613808400009
-263.000540700006
-261.396972900009
-262.701140100002
-263.701615500013
-265.582949100008
-266.715647100005
-267.097027500004
-268.840372200004
-269.701785900001
-270.277477199998
-269.579665500005
-269.634914700000
-270.291691800001
-271.573687800003
-272.350216200000
-270.707446500004
-270.240152700000
-271.470564900006
-275.252944800006
-276.743242799999
-276.334953000001
-276.207379199983
-278.479614299995
-280.931364599990
-283.918173899991
-282.595143299986
-280.586638199988
-279.596264999997
-279.670377599992
-279.381794399989
-277.878712199992
-277.603583699991
-278.760285599994
-279.100094999994
-279.558806399993
-278.967559499994
-278.883881099995
-279.573333899993
-281.623454699995
-282.807781199994
-283.383785399998
-284.024515199999
-284.013697799997
-284.655768599998
-286.290581700003
-286.312037699998
-287.543612100002
-288.324252899998
-288.858194399996
-289.495079999997
-289.486810499995
-289.837303199995
-292.433836799999
-293.934058200000
-294.502642200005
-294.541710000005
-295.370716200003
-296.156274000001
-297.363173999998
-296.499033600001
-297.648181199998
-297.918079800002
-297.861176699997
-299.766648299999
-301.714227299999
-303.952490400003
-304.483526399996
-307.291088700000
-310.317725699999
-311.415110700003
-310.911118200005
-311.369159100002
-311.693904599997
-314.368752600003
-316.170743700000
-317.186059500000
-317.349438000001
-319.148434200004
-322.408181700008
-327.419051700002
-330.017775600001
-331.003812900002
-332.301185699998
-334.812386999998
-335.952102900003
-337.555983600003
-339.223964100005
-342.022765200003
-345.244964700003
-348.837012000007
-351.722620500004
-353.586297600003
-356.849084700003
-358.746778500001
-360.130198800005
-360.427766700006
-361.108905300003
-363.472507200007
-366.459629400011
-367.764780000001
-367.242281700008
-365.863242000007
-366.480102000005
-367.789409700006
-367.417952700009
-364.936074600006
-358.803368700006
-354.164581500008
-351.857703900008
-349.204133100007
-348.846711900005
-349.436349600008
-350.213414400008
-349.777455300005
-347.668643400004
-346.586679900003
-347.850304200005
-349.700839500008
-353.007790200008
-356.193961500005
-358.474063800008
-360.341138100004
-361.550898900008
-364.047975000005
-367.864773900008
-370.094141700010
-372.288732900015
-376.630220400013
-381.973881900009
-386.220560700011
-385.231662600010
-383.952929700012
-382.423653300008
-380.499094800016
-379.633032300007
-379.769948400011
-382.444841100012
-386.077476000017
-389.050562400011
-391.224770400007
-393.965819100009
-394.769078100013
-395.496570600008
-396.840654900010
-397.197405600004
-395.426481000002
-389.066565000008
-376.608406800009
-354.784481100007
-320.184177900010
-294.371447700007
-283.485924900007
-259.632619200009
-247.721812500011
-288.288761100008
-410.284671600006
-511.351550400010
-522.565618200006
-500.947848900003
-517.582238700004
-512.947966200001
-477.523305600007
-446.425113300003
-419.465425800005
-406.284870900006
-394.413757800005
-385.534728600003
-379.906372800004
-379.516857000002
-382.244451000006
-385.210296000008
-388.763990700008
-392.554550700006
-394.102467000008
-392.657360700010
-389.813546700014
-389.076399000009
-389.822173800014
-389.748776400011
-389.124228000012
-387.382716000007
-385.654122300013
-385.628956200009
-386.003184600013
-385.983293100016
-384.604208700010
-383.214888000010
-383.685444900013
-383.112748500003
-382.881962400006
-381.728434200009
-380.121513900009
-379.341945900007
-378.505966500008
-378.438246000009
-377.960805300008
-374.761045200004
-373.438282800005
-374.737264800006
-374.592928500013
-374.238278700010
-371.953170000004
-371.554803600000
-371.185894500002
-370.582980900002
-368.376141900004
-366.028229700005
-362.821854000005
-362.207541900003
-360.078972600004
-357.542426400007
-355.801495500007
-353.641859700005
-350.923429200004
-348.974777400006
-345.952297500007
-342.771400800008
-340.118858100002
-337.885958999996
-335.657485200001
-330.189825900001
-327.245436900004
-324.668884200004
-324.107720400007
-324.100479000004
-323.167366500002
-322.444567500010
-323.778460199999
-326.545837200003
-330.307968000005
-334.517098800006
-340.468903800007
-348.816941700003
-359.059544399999
-367.508559600003
-373.072055700002
-378.726650400004
-383.453675400004
-387.729498600002
-389.033308200007
-389.450716800005
-390.596377800001
-394.387876500008
-398.388794700004
-400.359260100006
-399.547821000004
-399.670254300007
-402.256551600010
-403.680872400008
-404.913117300006
-403.915860300011
-403.234989900011
-401.843568300010
-400.910902800013
-398.912812800008
-399.978416100013
-400.212331200008
-400.362076200006
-401.988083400014
-403.974730200014
-403.824225300010
-403.915770900014
-403.734601800010
-405.853426500009
-405.855527400010
-404.485248900008
-401.597137200009
-399.942611400009
-397.542310800014
-395.063293500007
-393.236985600011
-392.606045100012
-393.248786400007
-392.731383900009
-393.244271700009
-391.964421300010
-391.237018200009
-391.801355700009
-392.864098200007
-391.881994500007
-390.294429300011
-388.698773400014
-388.216236900014
-388.188746400017
-387.545066400013
-386.665370400009
-385.647774900008
-384.144603300007
-384.292202700010
-384.814790400007
-383.667117900004
-380.925890400009
-380.425250400007
-380.481795900007
-377.979758100009
-375.891463500007
-374.754787200007
-375.602209800010
-376.376458500006
-375.860531100010
-375.117751200007
-373.700761200009
-373.526475900009
-373.737996300013
-371.700212700012
-369.913509000013
-370.269723300007
-370.976385600006
-371.344937100006
-370.004875800008
-368.418830400009
-367.863030600016
-367.597825500012
-366.491142900013
-364.279923300015
-362.001474900007
-361.921864200009
-361.584870900009
-360.634236000013
-360.759619500011
-359.092533000010
-358.659345300002
-358.513265700003
-358.149720600006
-358.852851600004
-358.280870399998
-355.680537299999
-355.338314100001
-354.985228800000
-354.749525700001
-351.403596600001
-348.684585000006
-348.101428800004
-349.096003800001
-351.063787200004
-352.677904200005
-352.584749400005
-354.042729300003
-355.442599200003
-357.041518200007
-355.955934000009
-356.264989800009
-355.991738700006
-356.169823500011
-355.323116100008
-355.275287100012
-356.732685900010
-357.906060900008
-359.797094400012
-359.392380600009
-358.576516200006
-358.768592100001
-358.670743800009
-360.096986700002
-360.709287300007
-359.260113300010
-358.223386200007
-356.887571400006
-357.117508200005
-357.426787500001
-356.344913400004
-353.836125900001
-351.857927400008
-351.640149000006
-350.546831700005
-350.167284000003
-350.994010500006
-350.755893600006
-351.029636400002
-353.746725900000
-352.542731400001
-352.108247400007
-352.344084600001
-353.064291000006
-352.525119600003
-352.819826700008
-353.485588500011
-353.375581800006
-353.188154700005
-352.677636000004
-352.125322800010
-351.060837000008
-351.940086000010
-353.126424000013
-353.425958700012
-353.589516000011
-354.020468700008
-354.227921400008
-354.117646500010
-353.085165900007
-352.122909000002
-350.213101500005
-350.005246500008
-352.557527100005
-354.285182100000
-354.793912800003
-354.476498100004
-356.104382699999
-357.065566800000
-356.710559400002
-355.906808700001
-356.749671900005
-355.766048400004
-355.418371800010
-354.304447800008
-353.987703600007
-353.621700000003
-354.905796900006
-355.933762800003
-356.218904100002
-352.608932100004
-346.166097600006
-342.522555900003
-343.372347600005
-344.575626900001
-343.641486300003
-339.356812500002
-336.822188400001
-335.540147700005
-335.591016300008
-335.214240000008
-333.662345400004
-338.017824000006
-341.847094200006
-343.865075700003
-343.575151500008
-342.921145800006
-344.293882800001
-348.104781300004
-348.681903000004
-348.462113100006
-353.710206000003
-360.456240600004
-363.950841900001
-364.283722800003
-362.567958000007
-359.636710800005
-358.704849900001
-358.323201300009
-357.085011300005
-355.675977900002
-354.668708100002
-354.756767100007
-355.520421900004
-354.052250400004
-353.656923600000
-353.778328800003
-352.503753000005
-350.968754999998
-349.914907800001
-344.172701100004
-330.227061000009
-307.159938900011
-269.609480400006
-236.816442900006
-224.742928200005
-205.601002500007
-183.856911000003
-202.008687000009
-314.269518600002
-442.905927000003
-479.289134400005
-451.861482600005
-459.007135200001
-456.632939400006
-413.425338300003
-374.649786900005
-347.088303300006
-336.236618400006
-320.371247400002
-305.385125400004
-299.039915700003
-299.021767500002
-300.706152900006
-303.329461800011
-305.673216900002
-306.363474300004
-305.840618400005
-305.275252800006
-304.196865300004
-301.722586200005
-299.554636200002
-298.155392100005
-298.437940800006
-297.111736500006
-295.053390900001
-293.287830300007
-292.127015999999
-290.820658500001
-288.707153100004
-285.949163100002
-283.841468700004
-282.605916000004
-282.038360100003
-281.305593000001
-279.339999899996
-279.126110400004
-278.336797800002
-277.550793000006
-275.343730500004
-272.998723800003
-271.309153200004
-270.580722000002
-268.673507100004
-266.439222300007
-264.631867200005
-263.815198200002
-261.405778799999
-258.377756099995
-254.954898300002
-251.317480500002
-247.844245800003
-243.356723400004
-239.906777400003
-235.683029700005
-230.052349500005
-226.154509500004
-224.054637600006
-220.586409300002
-217.360410300007
-214.615293900002
-211.344147900003
-208.855922400006
-205.590498000001
-202.396012500001
-197.915597400002
-193.646479199997
-190.783310100000
-190.259291999999
-189.952918200001
-189.545567100002
-188.276355299997
-190.731815699997
-193.746517799998
-196.200100800004
-198.058458600004
-201.491329200002
-205.479105600007
-212.509119300004
-218.697342600008
-222.800847300001
-228.093461400007
-232.661130900007
-237.354899100006
-241.894228800003
-244.959576000005
-248.378187300004
-249.528720600010
-250.071602100008
-251.164472400011
-249.903574800006
-249.978536700004
-250.854209700006
-252.978711300006
-253.499779200003
-253.454364000008
-253.963005300004
-254.929776900008
-255.726554400000
-256.846646999999
-256.621046100001
-255.653469900000
-254.593230600007
-256.263669600005
-255.275620800003
-252.507841499999
-250.682338200000
-250.337924700005
-251.065059599998
-249.803849100001
-247.983709800003
-245.207526900002
-244.460411100004
-243.822095100004
-241.699158000003
-240.463828800002
-240.130500899999
-239.997741899999
-239.804772000000
-238.658351099999
-236.673447600002
-235.658623500003
-234.981463200002
-233.639166900008
-232.516392300004
-231.828772200002
-231.793459200006
-231.552213299998
-231.443279399999
-231.378062099997
-230.935621500001
-231.901633199999
-231.653190599998
-232.554878999999
-233.045327400003
-230.822664600000
-230.700186599999
-231.934308899996
-231.364652099997
-231.612692399998
-231.039459599993
-230.389387499999
-230.951579399996
-231.473138999998
-233.065040099991
-231.733829400000
-230.780288999991
-231.488426399992
-231.909723899993
-231.057250199996
-229.443043799998
-227.098260599996
-226.765290299998
-226.829300699999
-227.651065499995
-228.181207499991
-228.889791900001
-229.510406699992
-231.204223799992
-231.555252899994
13.8423907419322
15.5212717839117
16.6310940943788
19.8378176291476
21.9776849342654
25.2015536978277
27.6416891701420
27.4113849680707
26.8594401509667
27.6186379370820
28.8914442951622
28.2402844951572
27.1255259058552
28.3652747462629
29.6745427661397
29.6639596360530
29.4978604705485
28.6315918493677
28.0972440830735
30.6793208090718
32.2252859152051
31.7774614875639
30.6045005008510
28.5168898853502
29.2242073250805
32.2098273513774
33.7892698908818
33.5325737770104
32.9640807066817
32.9288504819165
33.0095494600019
32.4322385113676
32.7051605145210
31.7751165223321
30.0082371457768
31.5546438948471
32.7175809715544
32.2665965850794
32.5821730926319
32.6331146755362
32.5591691129079
32.0042071895786
29.3265788913303
27.3976754250034
27.1906513138844
25.3479924487172
24.9575972350335
23.2141142630351
20.4123193206182
20.8206267725674
22.3936222829892
22.5823937354940
22.7681783339914
21.6451500614887
23.1118484729866
25.3848796799900
23.9090217914900
22.1801437994884
18.6745313249864
17.5433394914866
16.9383245444841
16.2301167419890
16.7629528109882
18.0781939889849
16.1604835289884
18.0351065414882
17.5771807439896
16.2709640489942
14.3080813334869
11.7580462379916
11.1995483459891
12.3064428239981
11.7175648004992
10.2812597069973
8.42310484499058
8.60459064449043
8.34867956849325
7.22910146549123
5.27130605699136
5.22645854699647
7.73388023848958
8.68330868549435
6.99574645649443
5.74255982999159
5.96518147499370
4.37774344648886
2.29145587649509
-0.383286631504461
3.61198349999682
10.3912420454968
14.2808635035016
12.7144568249976
11.2879772384917
12.3679804199917
13.3357141874958
14.4753013514939
15.8412933449983
14.8837391084936
16.8777142499933
16.2179304044950
13.3801068749942
13.0233805364920
10.6770062399955
10.1038972589897
8.61859336649087
6.17603740949272
2.82927398399130
1.23517029149036
-2.25745571550300
-6.18524091601370
-7.95776935201644
-9.94194021900637
-10.2899319540051
-12.0111796560128
-11.4247006815149
-10.4624978685093
-9.44065586850996
-10.0479780060094
-11.2807179585101
-14.4676176450118
-14.3807402895089
-15.0373582575099
-13.9953000120107
-13.1712754035053
-13.1120369520092
-12.8112240555106
-11.5934599440046
-9.77254197000866
-5.75984017951066
4.03913491199307
25.7061155594960
60.3524175179976
89.7313179644964
99.2170312094961
117.767218756498
140.046549397494
123.047800286990
12.2604480884925
-104.577733690506
-136.415894484009
-107.237939758509
-106.786897537500
-117.493088407503
-80.3439585765099
-43.6472412450091
-12.2493363390008
3.61839683249775
12.9658865024994
26.0640847814983
32.9241783600029
36.0947857904968
35.7334770314989
31.0905363074963
25.5359290259954
22.2341311184989
21.9424522199973
21.0502587705004
20.1368377379998
18.2096001434950
17.8113606914984
18.3207455759940
19.2123874274983
19.5499269614987
19.5373684965038
19.1702440440046
20.0799726330002
18.7991446440005
18.3392270145004
18.1580887575013
18.5249684775035
19.1851590930039
19.6443248685061
19.7942759355042
21.5967815325043
22.6683656925060
24.4863987285026
25.9461869670033
25.6135749375018
23.1491410125045
22.2292724520032
20.1068494020018
20.3060129340061
19.2353288085023
19.1808982890044
21.2452491105043
25.7395301505026
30.4532338800099
30.0752830875032
33.0792104760008
35.8586953650039
38.7268044855031
39.5299830255039
41.2696907100003
41.5627430159978
44.4874975410016
46.2874382519987
49.0574293079986
51.7209755834962
53.9162229795003
56.2122706635022
61.3565270280038
64.5899658960027
65.9762867790071
67.0550265150009
68.7477605339989
70.2193509135011
70.0369266375040
69.1005736110047
67.2394077570092
65.6340088215057
64.9590801690086
62.2551112365047
56.3581558185057
50.8260505170086
43.1768211270068
35.2976433150043
26.2958806545073
17.1767429460086
9.39314446200740
2.34065716650548
-3.53774641049000
-9.18709198949154
-16.4636203784944
-20.9537382839933
-25.2645770054967
-29.9364095744961
-33.0344496839943
-37.4352169829936
-40.7483074514914
-43.5428068469934
-46.4882451794948
-49.2879921314957
-49.3836995249891
-52.3070368364888
-55.7525680409925
-58.2692471024913
-59.8074811589952
-63.6432900749912
-66.6341634989921
-68.4333416279927
-68.8264189004904
-71.5734357209889
-75.8507127884927
-78.8509354409907
-80.1735952544901
-80.7815516849884
-82.8291055874876
-84.5156560319917
-88.1423965664876
-88.9824883664952
-89.2956109724869
-91.0861175249851
-94.9459529144893
-99.2762428409876
-101.557615514993
-100.603467641990
-101.463091553989
-103.574858570989
-104.252943266990
-104.203214293490
-101.735135530491
-102.497569126492
-103.380188282991
-104.691441997489
-106.307643805492
-105.000388058993
-103.812410015997
-105.089155330495
-105.650568556495
-106.139401945488
-106.747579417494
-107.075380609492
-108.699241762492
-111.648059638493
-114.216809059487
-113.721645926989
-115.508440814991
-117.135181988989
-118.526739253490
-120.644493388491
-120.010125292492
-121.140306011993
-123.651194635488
-125.179841659489
-124.002359399988
-122.996867542487
-125.080264363491
-128.251662760492
-129.522165049495
-129.601433794488
-130.179512074490
-130.512468293990
-131.451183491993
-133.157123455490
-133.618996262988
-133.973292038987
-133.494844471489
-132.814730395494
-133.707326368488
-133.419823120486
-134.048158280989
-136.339402949996
-137.537011384492
-138.191119894495
-138.436111207493
-139.455656297995
-138.527913161992
-139.032392668493
-137.165276797489
-136.725883172990
-135.796860052492
-137.726907041992
-139.909590832493
-139.352504789991
-138.684129604492
-136.598409500993
-137.041401251992
-138.215299688996
-138.466133068493
-138.201266123997
-137.953275887999
-135.141578837996
-135.763102612494
-136.521810016492
-133.986626942995
-132.067578164990
-132.434026306495
-131.275153774494
-133.601394520494
-133.781154229494
-133.394587064994
-132.331322245497
-131.183762389495
-130.041132496497
-127.759334948999
-126.491969258996
-125.846334304496
-125.663150351997
-127.318623345000
-127.157205833994
-126.396063620997
-127.310471405991
-128.040465317994
-128.866606247997
-128.927511562497
-127.759977064495
-128.575952320498
-129.734220731996
-129.399101702997
-128.385741080996
-127.419392342997
-127.914786127498
-127.620321301496
-127.977274268993
-127.599938548499
-125.894255386494
-125.178535301997
-124.959360473997
-125.754792503997
-125.109265499993
-124.507601264999
-123.605808937495
-122.207218351498
-121.967297806497
-122.133263542494
-122.181865628996
-121.769608480492
-122.056217057999
-122.315502536998
-120.801034576493
-116.700357598497
-110.663505931494
-104.770925525991
-101.803318004997
-98.4614510174914
-97.6471723499933
-96.2716096394920
-95.3298215399928
-93.3452063549879
-90.6113789399892
-87.1943656649934
-88.8629404514871
-87.8307271574940
-88.5335010044853
-89.3132714954884
-89.8733569079902
-90.8554206014882
-92.0362144604929
-94.8082699859895
-96.7151867369852
-97.7945493674868
-100.006720853990
-106.243645250990
-109.921262878488
-112.094980742988
-110.682336700487
-111.234186584991
-111.115203007491
-110.845397606992
-111.906430778994
-111.964222961995
-110.695310875500
-110.807367070496
-110.269398994498
-109.315394831996
-108.889189942501
-109.020514966502
-109.238710864497
-109.902547435502
-108.559241138997
-105.591217013999
-99.0288462209988
-87.6775384695014
-64.1854869944991
-27.1959238709975
-2.26165058699297
7.29364915950396
28.8362098155066
42.5393247015049
4.05255161700399
-116.733381064498
-215.714443656001
-226.735638331496
-204.087406189500
-218.454685744504
-213.555336656999
-177.854972267997
-145.056324918000
-115.532689000498
-100.864993261501
-91.1465818740043
-81.7275089535049
-79.4570287755018
-80.2391189730005
-82.8464561160054
-86.7190964909980
-88.7864558460005
-92.7271897425022
-95.0460829260005
-94.3928060594981
-93.3271598474965
-92.1583885004943
-91.3201323059986
-93.0188753459990
-93.6572671124970
-92.1890748269993
-91.6262566799964
-91.8506712419948
-92.0196195855010
-92.7399515925011
-92.5219224254994
-92.4422446754945
-92.6219878454944
-91.8750892874913
-91.4903356019896
-89.5039511909887
-86.6163269444954
-86.5853489504918
-85.4290904744924
-83.8811024309924
-82.9974902639924
-82.3135623839939
-83.9484675659910
-82.8604791764898
-84.5741801774947
-85.8336187694936
-84.8674841444926
-84.6525652034956
-84.8913132674984
-82.8383140109989
-81.8293572329979
-79.9861024454956
-79.6519719569971
-77.1793704479901
-74.8135556744941
-72.0563059064912
-69.0820360739967
-67.3792597529951
-66.0025927289898
-62.1356252309911
-57.5506648769896
-54.4260336314919
-51.6557334749920
-49.8944647454898
-47.7909102359915
-43.5634126529924
-40.1204239844904
-39.8305096184908
-38.8648273574938
-36.9567819314973
-35.6813499029972
-34.6116154289933
-35.7041363984986
-36.9747423914907
-38.5256287829899
-40.7895588464950
-45.1055217524902
-51.4805903819949
-57.7228300559880
-64.7347029314857
-71.7198952709953
-77.9236857929969
-83.7055684364968
-88.3584573690014
-94.5924559275006
-97.0984434195010
-99.4311996374944
-101.761720855500
-105.498732266998
-108.561762442500
-112.125625722001
-113.365013682003
-114.812108238001
-116.983650330004
-118.004774894998
-116.395439230500
-115.653233054995
-117.551636243996
-117.790450687498
-117.399072908999
-117.483988158000
-119.488527474002
-121.556113904997
-123.943850229003
-123.779382613498
-122.778043162501
-124.826015456997
-126.779042492998
-127.909659484502
-128.458138318499
-126.319336071001
-126.995029540496
-129.188614096499
-131.515514390996
-131.341285636496
-131.214566947494
-132.760352398496
-135.352531994997
-137.724017633994
-137.213262470999
-137.161378510499
-137.585776625993
-137.842498783494
-138.335734898994
-138.418951547998
-137.477038512002
-137.793562564503
-139.098518719501
-139.880355691498
-139.740821735996
-139.821221167498
-141.175137902999
-141.542004883500
-140.828765425500
-140.477917807499
-140.130183544499
-142.212363854997
-145.647628139997
-147.317179397999
-150.367775598002
-152.204217434994
-153.243618042002
-155.150925470998
-156.484936625995
-154.844361472497
-153.846771681000
-152.504049389996
-153.016145553003
-155.730666367495
-157.638937975499
-158.008244235004
-158.216834996998
-160.607653385997
-162.709230144001
-163.278988189500
-164.034356280000
-165.219723396004
-165.019839076500
-166.671595488005
-166.770645994502
-167.470275196503
-168.182889301505
-171.435603927006
-174.056106114004
-177.899522076003
-179.765764956006
-181.535547694507
-181.294110925504
-182.483814165004
-183.234333646508
-181.819770633004
-184.733246454003
-187.477556242506
-189.828624262506
-189.806546932501
-190.608054139505
-193.684106766006
-198.861765205505
-201.992906782508
-204.653971090507
-206.516590365004
-208.116969266999
-210.278891695497
-212.422320169502
-212.755418982000
-212.828620596001
-214.238229061497
-217.063417241998
-219.686031280501
-221.671136153999
-223.445235347991
-225.070854104996
-228.606545209495
-230.613747528003
-230.217085091997
-231.086137127998
-233.928848155499
-235.640348799001
-237.721591303504
-237.532935624002
-238.187178010505
-241.105877026498
-244.439132335498
-245.714340640497
-247.725195172499
-249.018745899000
-249.549479056499
-250.035016267501
-251.598905441997
-253.544113107000
-256.304131146003
-259.405352778002
-261.525868479003
-263.321288455504
-263.828911042503
-264.915419191500
-266.682428295000
-269.144235648001
-266.808415468504
-265.986205456502
-266.244120880500
-269.004231225003
-272.792213823004
-275.426235301507
-276.906796524003
-277.548023611504
-278.750370022501
-279.690921720001
-280.179996489005
-278.972658876000
-276.532167835503
-276.440062368008
-279.073522638000
-281.852935336499
-284.194477563001
-286.964823984006
-289.910981539502
-293.084447758501
-296.268019083004
-297.544274709004
-298.400364415504
-299.892532663504
-302.130461184002
-303.428945673002
-302.178840217502
-302.004522286502
-302.181197472001
-303.427957803005
-304.671232204503
-304.613566522502
-302.052955183507
-300.155922273002
-299.333410536003
-301.011143681997
-301.234899813000
-299.855647341001
-307.924460656506
-325.016870571000
-345.979300680601
-367.366147098601
-389.665495159502
-413.954767782000
-447.072207217798
-485.267009646896
-524.284180683601
-563.161531505997
-600.913544898597
-639.041863274397
-671.987270334899
-699.766391351099
-721.751137325396
-745.698215668796
-773.504836303797
-791.322407747398
-800.331367599596
-806.076495623395
-810.929295114296
-816.620670851695
-817.453307630395
-811.803625281592
-805.709278507794
-802.609060122606
-795.862260258601
-783.313283057107
-767.802105246602
-751.383252588600
-738.866772063603
-726.153930964806
-710.252528501698
-693.512780712302
-673.616332601100
-648.302812850399
-610.646426167794
-558.875240638799
-497.997666198897
-452.336420636397
-413.139788620800
-358.138433805305
-323.136141180899
-363.147327350098
-470.135515871397
-526.193608948798
-486.803516182499
-439.846720954195
-422.752950103492
-355.824101139301
-274.754346606597
-201.985458063897
-141.784603360799
-90.8776172805018
-31.5724680165075
23.2470492551917
65.1300989270957
107.349926355593
148.780477748695
190.056992405396
230.083997368193
272.357957837691
318.299286045893
367.775448727794
416.442130661397
461.777544647989
507.529435239588
557.527342624197
608.582204752795
655.956296115896
706.168428250498
757.636914453593
809.483527745993
859.781679130195
911.287071128397
968.895298475095
1032.92198787029
1086.60334368450
1143.42571016519
1205.81022660539
1266.32451493710
1325.13846980279
1385.09136681149
1445.74118844869
1506.72306135389
1567.11063926610
1628.80802216580
1688.24699478150
1747.47012227219
1806.34289987940
1865.88341525010
1925.44891903830
1985.41374290100
2045.04113763870
2103.67842961139
2163.57014260110
2223.62887021230
2281.96499816999
2341.36126619370
2403.05363822339
2472.96212124360
2547.74604980280
2627.91015743759
2708.87649293280
2792.93498655389
2877.36751068810
2966.10811975559
3059.75031845339
3158.49966505079
3258.33908131439
3353.97862039319
3445.86851655570
3534.45837827040
3620.79508534830
3700.04095177080
3776.46698543040
3852.07124391960
3920.92398638190
3980.46679066079
4035.38867334630
4090.31211753690
4144.98419842950
4194.53847257340
4242.03025094580
4285.94133537120
4331.90464140719
4372.65810705989
4409.13745928759
4446.17641483829
4483.28235713849
4523.40410607569
4562.01569170709
4597.90614052169
4636.14040437899
4675.39566835649
4711.39251868199
4744.00195039560
4776.19254704279
4811.68108769759
4843.03456375379
4868.21666849939
4892.32807025610
4916.86313494740
4942.94930899380
4967.07817857180
4989.89272300890
5015.22660790080
5040.50899034670
5062.33346473920
5081.29808699520
5097.50386101120
5114.68732504920
5130.31706728530
5145.16259044171
5157.48092485141
5169.08342760540
5181.70919086921
5195.75148671791
5204.81817559201
5213.90877168000
5224.33223044590
5232.89767108711
5240.28906931260
5247.60689084640
5254.84639860600
5264.60687148660
5272.25236632570
5278.86466402380
5286.85014750990
5296.42211780850
5304.73825501710
5306.64411385320
5309.35848979500
5315.47073337600
5319.74167600650
5315.77999032599
5306.61773902049
5308.67784177750
5310.68350574550
5307.03571553400
5303.44547657250
5298.60428062051
5293.78383954900
5290.01749130401
5289.53948671350
5286.34301720400
5282.38577582100
5279.19400942200
5275.65180016351
5273.22697759051
5269.02186286200
5262.66483269401
5259.95176395901
5258.02814885251
5256.15695477701
5254.62410014201
5251.71039501001
5252.61795542551
5252.04244896001
5252.46023393401
5248.92300313801
5244.49111100551
5243.55935425651
5242.91585886751
5241.11388050701
5239.19125192951
5236.42325762251
5235.94386599101
5237.23415115901
5237.26746696302
5236.30204530301
5233.50589625401
5231.44831927051
5230.17116986801
5228.37797706901
5225.33408430451
5225.20585006200
5223.33425838001
5223.45605582251
5222.04324281400
5221.05127047151
5218.45522499551
5216.70475176301
5216.29101526802
5215.00688484301
5211.96331146000
5209.38630304350
5207.55318912149
5206.17484830599
5204.87579053949
5202.49407240000
5198.78502419100
5195.98921329749
5195.28760187399
5194.95049481250
5192.77526631150
5188.41406410000
5186.66773992149
5185.53079631550
5184.23873007600
5180.36201440199
5175.63096170849
5174.13362032949
5174.31676583999
5173.61442357149
5171.13963198599
5170.47396338549
5168.31212812199
5167.45830805798
5166.64740446399
5164.26374612099
5158.23134545649
5155.26437759248
5152.03178109598
5149.33007644198
5145.35736662398
5143.80471368848
5142.68410078048
5142.25426513348
5141.97861878398
5140.37431946848
5138.53862814448
5136.44677676549
5134.43840844748
5132.95268146949
5129.83171584749
5126.04123317849
5121.72769614148
5120.91607153648
5119.67809922548
5116.58764180048
5113.89700173749
5111.90329121999
5109.95155154398
5107.45932517048
5102.36138068798
5098.42701877648
5096.26360001549
5095.20750127649
5092.66583536199
5090.98388566499
5090.78788242299
5092.93702646248
5094.29232979198
5091.85791839848
5089.24585981798
5085.25307165398
5082.78275029197
5080.59617357848
5078.24737631848
5077.49834489999
5076.93474472647
5074.77677668348
5071.07177896498
5068.29306604498
5066.30240093848
5059.64281926748
5054.41309784398
5049.25052163148
5042.30884161298
5037.07376602349
5034.63769938898
5030.17458520048
5023.02508750648
5016.29212899749
5010.12740515798
5006.88265920148
5005.02337611148
5003.38857887998
4999.88758369199
4994.74741156648
4990.00778071948
4985.96751087448
4983.06509830348
4978.25279374948
4975.50543050398
4971.80025376198
4967.29569216899
4966.89904805998
4963.56589824298
4960.72408322698
4958.63874463798
4960.54513973998
4970.65294601398
4989.86905628098
5017.39907689198
5034.75531939298
5039.55407872947
5059.19702236797
5072.28314315398
5027.42282548648
4901.27389274398
4806.67989891298
4799.59074130197
4823.30931874348
4808.25601599598
4804.39367025448
4835.28841989148
4863.20062818448
4887.57434916448
4898.18950155598
4902.18151976248
4907.53534313698
4907.85876127048
4905.36611605798
4900.14616292548
4892.47931838298
4887.28178475898
4882.74144595648
4876.57379918398
4870.83334807649
4868.22750860698
4866.42144623098
4863.21623585998
4860.35691498298
4856.47586139749
4853.60061703949
4851.39160740748
4847.99446261198
4844.89673584949
4842.62346661498
4838.30048804398
4834.07155648499
4831.95919696948
4826.49455581348
4823.19037919548
4823.26029513598
4822.29026132998
4820.50653822598
4818.12617092049
4812.47628804748
4808.76286214398
4806.32517356998
4805.29462333949
4802.49063838049
4800.69526958548
4798.41691840799
4796.04314949299
4794.19995594449
4793.57477906249
4789.57770148649
4787.83038630900
4785.86800222200
4783.97331561450
4783.07375113500
4781.31015889949
4777.13871265799
4776.16036576950
4775.97202544850
4776.50613814949
4776.44628127349
4774.46007879150
4773.20706940050
4775.00643906901
4776.89461154550
4775.18814009900
4774.45393365900
4771.73856689700
4770.33515340450
4767.19692888901
4764.80434149750
4760.93244671849
4757.37492122850
4754.07905434050
4749.46341838800
4741.38023648099
4733.33814393149
4724.38470107700
4713.29206507350
4701.20167925250
4688.06349481200
4676.05953197100
4666.57061820600
4656.45229692749
4645.89337311300
4635.60081749250
4627.08126591600
4619.71950446100
4612.30327225650
4606.97484585750
4601.19545903850
4594.37523026099
4587.24787180649
4582.42143780600
4577.75879443949
4572.46258981201
4566.66609764400
4562.21781670350
4558.99172472749
4553.70329275950
4547.76632167799
4541.55325612950
4537.94763701550
4531.74911952900
4524.70098221400
4516.43723845650
4509.46621400549
4503.64458322800
4499.61182410050
4498.41717949950
4498.29864873299
4496.07472092299
4493.21821167600
4490.41719814950
4487.34506884200
4483.33256149650
4477.76961386550
4474.36623096150
4471.14410052300
4466.42264737800
4461.43867873200
4456.26375772050
4453.17155297250
4451.99439322350
4447.01725943100
4441.98799716900
4438.04653578000
4435.29661927049
4430.98918713599
4427.22842683799
4419.80618695349
4413.57747439350
4409.53350875249
4406.54817276450
4404.14976029249
4399.65802335299
4394.00925283949
4388.94349436850
4385.55371479200
4381.70535031649
4375.78482525900
4370.32401846899
4366.27302174150
4362.21596168250
4358.09119833300
4351.76254685400
4347.07485696000
4342.95161452799
4339.93406012099
4335.37248099599
4330.16753991150
4324.55230065600
4320.86106740849
4316.96608373850
4312.35511692450
4308.50368312350
4304.42738060849
4301.76560780550
4296.88838097149
4292.09595808349
4287.00798259500
4281.41735225400
4276.32495325350
4271.28321432750
4265.54304326551
4259.63749829549
4254.84095429099
4250.51602992900
4246.43677296750
4242.47043982800
4237.58269106100
4231.53814451250
4226.43206753550
4223.30286191550
4219.79855691600
4214.14903790100
4207.67586908699
4201.92865554000
4197.67786612800
4191.68217019800
4186.66790679750
4181.64381207900
4176.92469562650
4172.75177227349
4170.50936458950
4165.20743076299
4159.12425335700
4153.58066283749
4149.31529429700
4143.47173682850
4135.95021131550
4131.00624201750
4126.64566448850
4124.91987325499
4122.87585936899
4120.85987126550
4119.04604360550
4119.71273494200
4118.05212323700
4116.49777661850
4115.54617441050
4114.29033886200
4113.86871237000
4111.91646445500
4107.01569949500
4101.57277091700
4097.09826493350
4094.46263581950
4094.21820213900
4092.73279454250
4088.70203842201
4085.87482957800
4083.97115491800
4081.82649205351
4079.81914244850
4076.77208447700
4073.90015663551
4070.28729790950
4069.61972710050
4067.52245160000
4065.53142196501
4062.68914005750
4059.89252501100
4057.43077599151
4056.04766412150
4053.73060877850
4050.53172189300
4047.41648301150
4045.55733603300
4044.52749407400
4043.14227772800
4041.96424498800
4040.66805226800
4040.16719055600
4038.37903432951
4036.00862752500
4031.66786885850
4029.71778420000
4027.04157799050
4024.86519801751
4022.31114841500
4020.50373855750
4021.81352611201
4025.60138734951
4029.47185575150
4027.91296671900
4026.34804162200
4026.71393257799
4024.04077982549
4020.15004153800
4018.76099283750
4015.86292823549
4013.02124396700
4009.78666413150
4004.43969214951
3997.35821623350
3991.04732808750
3986.24473349100
3984.48626588700
3979.24796563950
3973.36532852551
3967.18066021650
3962.86675261651
3958.08596603250
3949.79183052150
3940.10692156051
3931.60888610550
3925.65697069650
3922.95887668500
3919.74750464250
3914.10666793201
3910.66436339701
3906.63939749100
3903.03362237400
3897.89550331950
3891.76967317351
3887.14308259201
3884.59473156901
3879.67667843701
3873.95025731851
3867.37404561751
3861.98146242601
3859.15296979801
3860.92845089251
3869.44381921951
3888.20024742601
3919.87702512751
3943.52438652901
3949.20120897451
3966.62443308452
3975.94594177351
3935.01387306901
3811.86427858951
3701.41969314301
3682.89727211852
3700.07434405650
3676.88446234650
3675.52714438800
3703.69468667999
3730.66428953400
3750.91281871500
3755.30816099850
3760.75116891900
3766.85317731750
3765.60808608450
3759.71758713450
3749.51191937400
3741.62930457899
3732.31797184500
3723.66760951799
3715.87315049849
3709.06101622050
3701.20545699449
3695.06363721150
3688.69014537449
3679.99646561850
3672.61759881450
3668.28385491900
3665.46877899599
3659.00569740749
3651.60822691050
3646.53470829599
3641.26730700750
3633.79420612199
3626.00968123049
3617.35586560500
3612.09551551800
3606.49432010850
3601.22852936100
3596.31344699100
3590.37476613449
3585.00012485250
3582.01191376050
3578.04666079649
3572.17461244199
3565.50485459250
3559.69932631949
3554.38082264999
3549.38158805999
3542.31755631899
3535.50222487349
3528.97292716349
3524.10113562600
3521.08681883999
3517.02533303400
3512.82484386149
3509.21248510500
3507.33530145300
3505.52072082150
3501.57874649999
3497.45370131700
3495.66538461750
3494.39923700250
3491.79149197201
3488.39428035000
3486.25430986801
3484.87535107501
3483.03609537300
3479.20819589851
3476.07394297800
3472.65756645450
3468.21149928151
3461.56013436450
3455.61186312300
3451.54535728351
3446.53768221601
3440.16722238001
3430.38116223601
3421.22068797901
3411.91924087351
3400.74765528301
3388.08717236700
3376.94600110351
3366.96054744601
3356.94093471900
3346.84326595800
3338.30013401400
3331.57840638001
3324.99027274200
3318.90645210300
3312.08933556300
3305.64208336200
3300.34153836450
3295.21964250450
3290.34762970201
3284.31950503950
3276.16212873151
3271.10698181701
3267.40998808050
3263.79561044850
3259.69283055900
3254.94330424950
3250.36778319450
3246.64442182200
3242.36711257050
3237.30181696800
3231.43371808200
3225.95234258700
3222.98758670250
3217.03503476550
3212.51505413100
3208.80424429499
3205.95896346450
3202.41971178150
3197.15842880550
3189.54814563150
3184.73705468250
3179.99569506300
3175.48789853100
3168.95676745050
3163.58631366449
3158.75005527450
3155.31174177900
3150.72263751150
3144.33355185600
3137.22847925700
3130.46185695450
3125.82293677200
3119.94762487051
3115.38751302300
3110.53283510400
3105.74297419650
3100.09517054400
3094.53449479050
3088.73549942250
3082.98892732050
3076.96512470099
3071.71824652350
3065.68791993900
3059.93790951300
3053.33052626700
3046.14754872000
3040.07683009800
3033.97089368700
3028.75040147250
3022.24655057850
3016.43667791250
3010.68932579550
3005.34529753200
2998.84623110250
2995.13678729850
2989.83893949901
2984.25337411500
2981.34082447800
2975.23023569101
2967.19428223950
2959.90193340300
2955.85432426500
2951.32069984950
2944.46057453400
2939.33243520150
2933.76095903400
2929.26909291150
2927.33088526650
2921.71565115149
2915.58865031250
2910.50909317500
2905.69726780500
2900.89213111950
2894.03112074399
2885.88841162349
2880.81752606249
2876.99722827000
2873.60481854550
2869.23116023200
2863.96135877700
2858.18074181399
2855.29311332099
2851.30721365050
2845.74096917099
2840.79553237199
2836.07953732049
2831.84277409799
2825.39491509450
2818.54624616549
2810.84451841349
2805.46055382900
2800.21647051899
2794.92510198449
2788.65874286099
2784.01785811349
2779.63589565749
2774.48126665799
2768.96861725499
2763.59981513399
2759.26828232399
2754.07402655099
2748.26173382699
2743.15605624449
2738.28241971449
2732.90313320849
2727.10571820899
2720.66758681949
2715.99706910099
2709.95618772899
2704.22098931850
2697.28724667900
2691.97093375650
2688.33323904000
2682.22061707350
2673.91177369800
2665.36891643550
2658.86731797450
2655.96713861551
2651.13513343051
2644.24628277751
2639.21316648151
2634.16894961101
2630.58482382151
2626.37868881551
2621.69436393752
2616.64907560801
2611.74945452101
2607.45533427001
2603.92336824001
2598.60919041302
2593.65193627501
2590.15731486002
2586.82268636702
2580.95576063252
2573.56030118851
2566.31501631151
2561.82046818902
2557.48487728952
2552.89160988752
2547.89960082902
2542.69272132902
2539.57357879652
2534.01603919502
2529.06064256552
2524.01574223202
2516.68532486402
2510.73744005402
2507.77073189702
2502.46552491302
2496.70976606702
2490.41479089752
2487.45245551802
2483.82330945302
2480.24775399452
2474.59200536402
2470.86911289452
2468.74981884453
2469.39085662752
2469.21132779402
2465.46499732653
2460.53313502353
2454.54254115152
2449.67638114353
2446.57382655752
2443.18110035702
2438.47902041552
2432.58682957052
2427.02477392802
2422.96359811652
2414.29171922102
2406.15676778552
2400.08396659052
2395.16745829052
2389.14142670551
2380.74146707352
2374.15557022352
2367.58027844852
2360.59940256452
2350.46442986552
2339.22141948602
2329.77268811552
2321.05830823652
2313.56395361852
2309.09231759852
2301.71923050452
2295.27155141852
2291.13673325102
2287.37787717302
2282.04786772352
2275.75467228451
2271.75447889502
2268.04122329852
2263.24778795551
2257.24423197751
2251.80932257952
2246.13753514202
2242.17138639002
2241.08910909602
2247.07542718952
2262.07082086352
2291.77829245952
2318.41823191952
2325.58825183052
2338.48926120002
2354.46575103602
2332.60383391202
2219.25095493902
2088.00371832602
2042.29390084952
2061.25171350751
2052.01407252302
2044.08066645901
2080.15478364001
2113.91099573101
2138.82014515651
2148.67393362302
2153.94558990451
2162.79077248801
2163.04766852851
2155.68940864801
2144.45109646201
2132.28211373701
2122.06798046702
2111.99843940452
2103.74634960751
2098.82019884701
2095.23820234201
2090.31031945651
2084.11669259701
2078.23187948701
2072.41262630251
2068.68158591701
2063.36573496900
2057.91961592851
2051.74442357251
2046.96065885100
2042.74946648701
2037.46455285601
2033.68366951201
2028.20140113451
2021.70595361701
2014.42988295601
2010.23730702450
2005.62571508101
1999.75344546151
1993.68903289200
1989.27280721551
1984.34026793101
1979.41259155951
1974.64319721750
1970.93871980700
1967.14998334351
1964.00685121501
1960.48759138351
1953.97779382500
1949.17127501551
1943.20282328851
1940.63217054150
1936.70834933701
1931.47629904351
1925.96915846851
1923.49481790601
1922.18945989801
1919.37068326201
1916.96021229451
1916.57643709201
1912.88931624451
1909.36572744150
1905.49257279301
1901.04758333701
1899.42886782451
1897.31501465851
1893.78881939851
1890.52858802100
1887.65930351401
1883.23103521051
1881.44461177951
1876.68331484251
1871.12105156851
1865.97559947900
1856.40830515800
1847.89853863501
1838.51713216952
1824.81465582301
1811.30933977801
1796.75126408401
1785.05224509001
1773.96155925811
1762.06108697461
1752.42427485601
1740.67537334401
1731.33342374731
1722.12954279541
1712.80717144112
1702.60837259551
1694.34099106261
1686.81488084941
1679.37199828141
1669.18554374311
1661.66688233791
1655.34713116530
1648.45142621430
1641.46737877590
1634.62781595211
1628.46366154591
1621.24800056580
1614.96680470770
1609.19399196241
1602.46449327810
1597.10680585681
1591.38369048211
1584.65902181161
1577.79357764311
1570.51361852911
1562.30336010961
1552.93088202211
1549.47902581231
1544.43506784420
1538.36620552381
1532.27657585161
1528.51091594191
1523.63248922581
1521.04339415280
1516.24646206290
1509.12979920090
1502.72984997031
1498.26928390530
1493.82123732690
1488.18291503610
1481.22463920390
1473.30824157931
1467.46850399400
1462.39146999271
1455.49383865050
1449.28305901531
1442.98916218861
1438.24785951691
1435.47138056880
1430.83021090350
1425.21683832001
1419.37437260430
1413.85534442191
1409.06294298990
1402.36627471230
1397.17857616111
1391.98455868381
1385.16297370830
1378.94541665911
1374.24333238171
1368.80718667110
1363.89928678650
1359.46966192740
1356.26804887830
1350.85399368420
1344.35166513811
1338.59756229301
1334.53725151591
1329.83834674950
1323.59454208381
1316.26734351810
1312.75116436591
1308.69677017021
1304.88296120850
1302.12648649380
1295.46851487210
1290.84152753340
1286.41455906120
1282.27414172700
1276.37170962030
1271.43873379560
1266.41281035540
1261.56033163170
1256.76344160450
1252.55220538981
1247.49147696510
1241.93523786540
1237.56331140870
1234.29663290551
1230.48365804580
1225.43909917560
1220.08200326940
1215.64192741620
1213.02840866550
1208.25854761080
1204.71716101110
1202.34051135990
1199.78566649970
1197.93983793090
1196.14396688670
1191.05183751660
1186.51369098090
1183.47181575090
1181.27216209710
1178.23579202970
1174.74088641210
1171.13868555180
1169.27933474130
1168.84587834960
1167.33583738770
1163.88449317171
1161.11009076211
1159.40164040191
1157.60922207511
1153.91972466271
1148.53981570921
1146.04080441212
1144.60370955901
1144.66311889861
1143.11529548521
1140.23797628731
1140.52526363430
1143.79445240010
1146.05838867690
1145.00593271970
1142.28863532000
1139.77527384780
1136.43885324240
1132.14672759480
1132.27535032500
1130.52584417700
1128.34816298700
1128.11218730640
1127.41956456120
1125.70725444540
1125.03462131671
1124.89232856660
1125.19380901291
1124.21044839361
1122.32268639720
1119.61546956270
1119.76284443460
1118.49707086920
1116.83117464080
1113.98887954680
1111.87497609330
1112.82122726430
1113.56962595431
1112.49267184920
1111.10970337680
1110.05922338310
1110.11370977760
1108.91970688980
1109.37058099410
1109.44620186150
1108.64735743350
1107.57197480160
1111.40116606140
1116.15474375540
1119.90511872360
1118.63710363200
1117.31004922739
1117.59611545980
1119.72516626820
1121.46214689510
1121.54632423650
1122.70757355691
1123.32329848980
1120.25209541100
1117.78464133050
1116.68909260650
1114.36563018900
1111.91265220350
1112.29043067750
1113.81529831650
1114.65578191200
1110.88184405400
1109.72518014899
1111.20652026899
1113.67954285200
1111.40627205300
1114.30132521600
1119.30374047920
1127.18884850609
1132.82214937770
1136.99933581439
1140.56993462400
1146.73032770399
1156.81182619530
1162.40776457190
1166.21603667871
1173.61026776669
1182.66424007190
1190.78684679780
1197.55478712450
1203.74487378870
1214.96703568590
1228.75603764360
1247.50682001660
1274.64248292360
1316.45532154561
1352.21638120381
1370.41560030871
1399.65998745901
1426.20824033520
1402.86419494080
1296.27708517080
1207.64139992160
1204.73490150240
1242.32109045571
1242.34232648701
1250.80664611771
1295.67851766241
1339.19092475461
1382.10546174781
1411.03742571301
1432.94151661652
1458.92647314512
1480.41091848182
1496.97757812663
1507.99804378979
1519.07783587410
1534.87211027250
1552.27672689000
1568.19353055929
1583.60340216720
1603.03053152370
1627.14165578280
1651.33904983500
1670.54836087439
1690.66539405389
1712.32520786099
1734.42521287469
1752.88831024950
1770.21494347049
1788.72039083219
1810.06386685170
1829.81145917999
1848.91038522330
1869.39311956260
1889.11952587889
1907.37066743100
1925.31888669359
1946.35217501969
1969.17931748129
1990.16504299589
2010.05289918599
2033.65223973510
2064.09862123919
2089.93114249829
2109.47183390340
2134.67899121100
2161.16913462359
2186.76522126719
2211.37024387230
2236.13587871789
2262.90172748399
2288.89198029209
2315.32678912770
2341.98078240180
2368.13657473140
2393.55233576400
2420.61213061260
2445.74694655770
2470.58409223980
2495.08928924040
2521.01276740049
2547.85786278510
2576.43739952370
2603.55406484130
2629.19181210840
2655.92851759199
2684.29372520609
2708.09904290819
2727.55700511779
2747.76355107539
2772.15291763650
2794.35404375009
2809.61534221319
2824.13420004929
2843.27252954489
2857.70169616050
2870.92215819239
2880.86496518910
2889.94876486559
2898.34577394000
2906.24108621700
2913.64144558560
2921.25555481140
2930.22996732990
2941.42706987070
2949.86683990380
2959.01943542821
2970.24033343291
2982.56217437880
2994.10102352821
3003.50222212560
3012.56862688651
3025.97302745160
3036.17334699120
3043.01601262080
3050.29913948970
3062.13665611440
3074.19171413971
3082.05750327361
3088.01068726860
3095.71130950021
3106.97674470750
3116.87910124380
3122.38175322361
3127.73041660890
3135.85779841230
3143.31040980121
3149.10143055511
3153.60248015850
3160.06243082490
3168.04423371300
3175.43058128549
3177.16718285640
3178.82586012420
3180.65639271060
3181.95734124240
3180.42691810859
3178.79927792819
3178.02972670650
3177.54266661120
3175.81648461029
3172.06229744729
3169.37855066070
3169.57669172489
3169.18080116850
3165.38976868950
3163.78450729590
3164.93793420570
3164.05385036430
3159.24166547220
3155.65633559880
3154.83830476860
3154.98657574141
3150.91268407620
3146.42825174251
3144.28324424100
3145.78535779200
3143.62004442150
3138.32525611350
3132.76950272401
3131.70651325651
3125.53919055901
3113.36611174951
3104.68880314501
3099.90034380601
3092.90311643851
3085.99478686651
3080.70173761201
3073.90112766451
3066.37893366300
3057.65681085001
3052.25144100001
3045.85009681651
3036.91495146001
3027.02154024301
3020.01665308350
3012.99626575201
3006.84370210050
2998.89098630701
2989.58535505800
2981.73985042651
2974.64034990600
2966.75502651450
2958.43906421701
2949.63935516700
2939.30760457501
2933.80154998651
2927.07051290701
2917.87642559102
2909.66720845801
2902.04472911251
2895.78395011352
2890.74829597502
2882.64440679301
2875.70685504301
2868.51535745251
2861.59983073351
2854.81801624201
2846.32771366351
2837.18816995801
2829.22475276101
2821.30365238351
2813.96290328101
2807.28701907300
2799.24000237150
2791.98011623951
2783.18335381351
2776.81297577851
2770.73540866950
2763.74847370051
2755.48763231401
2747.30527272901
2738.18638399950
2730.61271057250
2723.95490125650
2717.09241913350
2710.63794676500
2705.09715334800
2699.78294847750
2692.45510135950
2686.00124383950
2679.24482028900
2673.71257306500
2667.04712541300
2661.16219697700
2653.04802277200
2646.96821529900
2640.84215606550
2633.40641611050
2627.47550277300
2620.96269265799
2614.51595607149
2608.79357270400
2602.55235219000
2596.65049765200
2591.77980841649
2586.89065137599
2583.34058005799
2578.46593017899
2573.65055652299
2567.48825251799
2562.90731382299
2556.80962634999
2550.44735018999
2542.94267568299
2535.76689997650
2532.11407095749
2527.58463694349
2520.82545361499
2514.07371663599
2507.43529370999
2502.70526576399
2498.79359647800
2492.88608850750
2485.41034942799
2479.63109626200
2474.76860120700
2468.36763876149
2460.32444368650
2452.84564422150
2448.84883596300
2444.66912469150
2438.44924105200
2432.65676875500
2427.84522074849
2425.54525957950
2428.69471921650
2427.73776395999
2422.97235462300
2416.39075143149
2411.22354385200
2408.15517649649
2402.68417050749
2397.78245254349
2390.58516116249
2383.96886183099
2378.62158521849
2370.37587791099
2361.39845462400
2354.59753781100
2348.66759401649
2343.54455964749
2333.35023585299
2325.12027568500
2318.86879383900
2313.76064032350
2301.79595403150
2291.51675186550
2283.07236669150
2275.42800066150
2270.44702490400
2265.16617182100
2258.72364105750
2251.85663462399
2247.00983776199
2242.07917341900
2237.40062601600
2232.22205524949
2226.26236807499
2217.78031823399
2210.22275759249
2205.53696387250
2202.72730938899
2198.68055267999
2194.04864905649
2192.84832532049
2199.24150482549
2213.23924903349
2239.93086169349
2267.26527935099
2275.81497593699
2290.54699743449
2309.47919565149
2295.61936949400
2194.15278955199
2067.99821365799
2019.25055646749
2036.03292673499
2026.28044567799
2011.28234854799
2036.41957860599
2067.21226585049
2095.29384847799
2107.47068208749
2114.81011209299
2124.70317599099
2128.96084160399
2126.12443551149
2119.93268761648
2112.06327764849
2105.55110070898
2100.39258794998
2096.99609733899
2091.49451364449
2088.17080022099
2084.23770019050
2081.94997452900
2078.53614054150
2073.65905898250
2068.72321860299
2068.77664806600
2067.68213749950
2066.28972132449
2063.41576432650
2060.47390467600
2056.26583572449
2052.00700567650
2050.66602690900
2045.62839971250
2041.32939822150
2038.95282192301
2038.30002669899
2035.06340250899
2033.90804674950
2031.38281747199
2029.90713570150
2028.43668472500
2025.31849474949
2021.45271068400
2019.44350625250
2017.20140342249
2014.64739583800
2012.39258971500
2011.03344375000
2009.98353797250
2007.54447844949
2006.20865783849
2003.83056598650
2003.65600846350
2003.74420379850
2002.64693837100
2001.77967791100
2003.38979493149
2002.68587877599
2001.42124202099
2003.00872050299
2005.37480459399
2006.52789384000
2007.38663045699
2006.47515454499
2006.72278919249
2006.10252238199
2005.05074836800
2003.58056469749
1999.61819868300
1996.49527095450
1994.57718747300
1993.44983671049
1986.59460068100
1979.08161309150
1971.98320995599
1963.51364281349
1953.62178402749
1942.18142605350
1929.90968272200
1919.97901696050
1909.79339223299
1902.79866426599
1894.86638128950
1885.72209089100
1880.72753773200
1876.18067496450
1872.12803975850
1866.65644909350
1861.51787231100
1855.52255320200
1852.11309668550
1846.35939180450
1841.40591168751
1836.57704019600
1831.15070045850
1826.44225031999
1820.96002016100
1816.25805308700
1815.25208919750
1814.36247426750
1812.52499986050
1810.04411231250
1807.51561948799
1803.67876615649
1801.22312896799
1797.78679679999
1793.98589500800
1789.72250623049
1785.72719653949
1783.24563558600
1778.04926282100
1774.54489054799
1769.78140576950
1766.79215093250
1763.55270192600
1760.21512859700
1756.21375289250
1752.29038785150
1746.28966652399
1741.72073290800
1738.77917408850
1736.76977051849
1734.21829988248
1731.18849968700
1727.19721634850
1723.46490313050
1719.65058150450
1714.35027565200
1709.60648345850
1706.41066142850
1704.11811554250
1699.41169232550
1692.51213602249
1688.07229310100
1686.13641991350
1684.91242238699
1681.34277984450
1676.65796326649
1670.71235681549
1668.04387655399
1664.45968684349
1660.79825083949
1656.97734155100
1652.80069625250
1650.00436192200
1650.12675789750
1647.01543920600
1643.48469974400
1639.04094244349
1634.78873872350
1630.27509230250
1625.80387780349
1618.71595257150
1614.63370138049
1610.89775114699
1608.58162668150
1605.33974130150
1601.77457389950
1600.75979114700
1597.40361814800
1594.42823975550
1590.54327939001
1585.04292092250
1580.33920294951
1575.94965378600
1570.35132252900
1567.22613409800
1562.58274749151
1557.29760723150
1554.52449790350
1552.59421266300
1549.84112468850
1548.52183324350
1546.30448370901
1545.86970290100
1544.52530011350
1542.59846794800
1540.12666723950
1536.96508630350
1533.84381672151
1532.24678629650
1528.30775815200
1523.71654739700
1519.74322407151
1516.13797619101
1515.54679142400
1515.63775592400
1514.02391137050
1510.64662008000
1507.53351897600
1506.60189006901
1504.88274840751
1500.67489289850
1497.92509864351
1496.22611869351
1495.17209247001
1493.53040830950
1489.60856530351
1485.99127747801
1484.30740299901
1484.21558517601
1481.28862381201
1477.39479206101
1475.72664125401
1473.60250083001
1472.63825545050
1471.87803338700
1470.58262045850
1470.03836622150
1469.11644503700
1468.55109217651
1466.14214123251
1462.17126657301
1460.39065146001
1457.54461587001
1455.38311228051
1454.31387643501
1452.70313428501
1450.85585225100
1450.93691257200
1449.47990534400
1448.79408844200
1447.50392441100
1443.52060460100
1441.63946410500
1441.50789613650
1437.45322328099
1435.54015178700
1434.38805577500
1433.33706535200
1433.40896284350
1432.15253546700
1431.71159678700
1430.42854318500
1430.70060794699
1430.55187160249
1428.60926324250
1424.62671182549
1423.81162945199
1421.64197638200
1420.61964201150
1419.21948044400
1417.85725263750
1415.32337122800
1415.44003576950
1417.63150445100
1419.74810465550
1418.45923089000
1417.26883502400
1416.79952570100
1418.27767580549
1422.07390667100
1424.54094727650
1421.91496956300
1420.66931332200
1420.35842996250
1420.07692925399
1420.16099855549
1418.68046951699
1420.14053489550
1421.52491401050
1420.60315486350
1415.04327588749
1410.88923247350
1408.16122611599
1406.18679493199
1405.52992083299
1401.37813968599
1395.43390150200
1393.14332845050
1391.84634230549
1386.45250237350
1378.12040695200
1371.23459120550
1367.68843761899
1365.87192080700
1362.80157659400
1359.91988180250
1357.09059887849
1355.60388492449
1356.13416482399
1356.40969204800
1356.16308751200
1356.55363901099
1356.96722441999
1355.96234115299
1353.94202139599
1353.37728986549
1352.08272333150
1351.85234847149
1353.49676447249
1360.45885205249
1375.43564113949
1406.56539946198
1442.79978379949
1458.40161209249
1471.19066114849
1494.23250808049
1489.32867468900
1402.32663569099
1263.24592813350
1191.41462191199
1206.85320915749
1211.35257526949
1195.12367727299
1226.06276953350
1261.49614864500
1293.15822988049
1307.32141035300
1314.58371117900
1326.50715881550
1330.08299230800
1327.60427852099
1320.45319084800
1313.46909879900
1306.64721746249
1300.16836638450
1295.95439815050
1294.18338370352
1292.36005505852
1290.59266913401
1287.45410623952
1284.01793454452
1281.12005321252
1278.07389751052
1274.64492676201
1272.85013057401
1270.78528782901
1267.32631846351
1264.65908421451
1263.51208266152
1259.80058645701
1255.03870707902
1253.19147734402
1249.91249275202
1246.49956215152
1243.20343689752
1238.36543900702
1233.53874328801
1232.07440704802
1230.14765221352
1226.45241764552
1221.83316680402
1218.64423684352
1217.10412650452
1214.68216115552
1210.81552689602
1206.88087219952
1204.33699363502
1201.96611770403
1200.78395535453
1198.59916552352
1194.90957813003
1193.02781473953
1194.94926301353
1193.59088477103
1191.27290436153
1190.17648666952
1190.61108912452
1191.56244637652
1190.31951348302
1192.04854144352
1191.77423184752
1189.42883067002
1187.41186497752
1185.81971869802
1183.36755224102
1183.37305414052
1179.76798774202
1175.91289792801
1173.82071264002
1170.18020338802
1164.35254414503
1159.32131418902
1149.58854046802
1142.27629186202
1132.78206930152
1121.75523840302
1111.45743679051
1101.31759737901
1090.27295688301
1081.30750045652
1070.76960598051
1061.30849516851
1053.19721104202
1045.08819320551
1037.83010803651
1029.17507031302
1022.60315003551
1016.71422586652
1012.70925471751
1009.25725765801
1004.03224426201
999.296333349015
996.489439761017
993.667739968514
989.707418308517
984.078032397018
978.773609227515
975.696118155012
973.997083224020
972.761943999018
968.624753602519
965.316570523515
963.606563977517
961.976114044512
959.324884183518
954.890360115014
950.593582225518
948.604096305011
947.048053992017
944.499681736517
940.926325071017
938.767426597515
938.116243702512
936.801763318517
936.175602589516
934.460365473015
932.109434458520
930.706617487514
929.837683906513
926.336459184015
924.971588043014
922.572863565012
920.747164479011
921.603285922512
919.523748276015
917.796953751007
917.892569733014
916.696522446009
917.640798771015
916.131247810508
912.435043029005
908.417624047508
906.701635747511
903.611542180513
902.066276367012
898.818414597008
895.903948671012
894.440181462011
891.904740469510
892.541485935009
889.582181439007
886.855524798013
885.116586624008
883.666219134007
881.752667115015
877.741745278514
872.649119202015
871.617851536512
869.291433331511
866.968104790509
864.355376827505
861.615651918008
859.384404930004
858.540445686005
856.618029880510
853.611121449010
849.435034453507
847.831104583511
847.420324993513
841.260891175507
836.074581274506
832.420131880501
832.155854752509
832.259272449006
830.439418558502
828.176199448504
826.906932220503
824.958830230504
824.545278570002
822.947374483501
818.978264133006
816.936793453500
816.389071390502
817.631587009499
813.915966559505
811.821270025506
808.879308458998
806.828861125508
804.349199251506
803.602899226504
798.740549446504
792.321907703998
789.003777534004
788.081602230006
785.858068227008
782.773331284503
780.568769526004
778.013118993009
775.408280580008
773.594574280511
771.758600899508
767.807942932508
764.470005745508
759.944085598510
757.853569855504
753.681406179006
748.115161923011
745.557074569506
744.652152348006
740.566003540509
738.166909617012
736.072669470006
733.593850414503
730.792806715503
727.956174664501
725.464266778496
722.082600699001
718.383765993001
715.983715042506
712.949399700006
711.123601827005
707.644784991006
703.122781905007
702.676455981005
700.406567631002
697.108831612499
693.384137733012
689.984184436509
685.690473861012
681.834834460509
678.018597439515
674.146419262514
669.688269009010
665.559595974008
661.924040376011
656.646215047509
653.001257251503
650.472781636503
646.299351608997
643.389655843499
637.997553177005
634.112558168998
630.042159406503
627.575759128491
624.941593715992
620.106737788492
616.147427689493
614.108070202496
612.127514224501
608.829552917998
608.751356749493
612.475508864993
615.603900497990
615.425827096497
613.908424357493
611.947133632490
611.381733836988
610.477414171495
609.343461889492
605.354922907491
600.333501248992
597.388320835495
591.112144474488
584.876710151992
576.342062491485
572.634250013987
570.584998405491
566.368357334990
562.695745660489
558.147334037989
553.892840783989
547.874389871986
540.423105268486
535.921937522986
531.801808892986
528.292785584990
523.386720322493
518.108559967495
517.277280325492
514.424741332492
509.659958465991
506.616225280495
504.678208504500
503.177836688999
503.374185908995
501.470867954993
498.950491979997
497.685957364498
496.587919744499
494.584620853502
494.531821660494
497.569049654996
510.835275457497
535.191066373498
568.320826291492
585.687641907001
594.115732813496
618.720028462501
627.935428514997
563.226930288001
430.640265103493
345.618326366992
349.841713784996
371.000927017496
350.191803961490
360.277182233996
396.969296359497
428.527878544501
452.467522294497
460.285767078003
466.805243751000
476.483683504501
480.534835341006
478.959167716504
474.700983360006
468.531867968995
466.120410472500
463.471532949005
463.414145524501
461.643644233502
460.474904623505
461.153017256998
461.465596758000
461.355851106000
460.735486178997
459.762706004994
456.594638204984
456.939260006982
456.179448065985
454.388654539482
453.712651745986
454.756527940488
454.758647614484
454.541616374989
454.061633362484
452.615995802991
450.441995657990
449.514808366492
448.855027649997
449.337293714994
448.685696003993
448.073228673000
446.191981343996
446.427102673495
447.781998339000
449.925239296503
450.674652452999
451.959809637003
452.384711298000
452.896047337501
452.671690438501
449.232632240999
449.603416729502
451.476806469000
453.097420614000
454.824099366002
455.827826244005
458.648156875506
464.292525109502
468.709797660003
472.607868088502
476.242944726004
478.902993673501
482.272334845500
484.614812643005
483.326321286013
482.743224537002
483.760714321512
486.535399548004
487.291667226004
486.277860274508
486.732300366004
484.538947803003
482.963746623003
478.856378725501
473.695735788000
466.498551016501
458.645426376006
450.527921797508
440.798703067503
431.263220395507
423.504554454004
416.085736131001
410.082164284508
404.111771907004
396.932495520006
391.617819511508
386.401342474508
383.687237370006
381.473847763818
379.363978395912
376.187195973309
375.046753430113
373.423490899511
371.543158579509
370.309660559706
367.369722651612
364.487803957813
364.740350241307
362.892050790606
359.384793266707
357.639423612007
357.305164119316
356.593816320614
353.743035557412
351.880570497908
349.571910485409
349.891975001412
348.231535793713
346.578167187308
343.385026531509
341.926239304812
339.182512046715
337.846211134218
334.918721013915
332.493419748618
330.734927827816
329.969422939514
329.487498784818
329.865503843113
328.631203592406
327.338589733203
325.276363681507
324.272488176004
322.498761422405
318.128970508205
316.243284737409
314.594970628208
312.592410225912
310.237554462006
309.665018535008
308.079790742711
310.383791584809
309.773848015806
306.946017484210
306.183436110006
308.339709486614
311.185873365610
309.871929247513
309.395465331909
313.494472675508
319.576254681602
325.390649557210
326.892357321602
328.242361287308
330.447240147607
334.575555448497
338.985588968098
343.458975127196
349.722322677597
356.549254488296
363.158209162806
369.504206610902
378.575569898101
389.800388003398
397.358536762800
406.985593464007
418.833600016504
432.277121619307
446.278950647409
458.584835615402
480.916153742102
505.342222311005
530.468977058103
555.512918394901
580.576950236109
614.075138460901
650.953853719806
687.288925477807
721.377550772710
757.450297407007
794.850232233008
834.132286753205
869.453742741604
902.487301018206
937.527568617010
972.817474362008
1008.26469777871
1042.33909792441
1077.10821675361
1113.34546998181
1149.69443253301
1183.81094074921
1220.43639774301
1259.35985840341
1300.43936965560
1337.34479553361
1376.79962444911
1420.67302467360
1463.29378678530
1500.23479037670
1536.53283480031
1575.64243202701
1617.80573286361
1658.00985670411
1696.06139679541
1734.84916908601
1774.01316634681
1813.09378563631
1848.30886317901
1885.11087010891
1921.00894040760
1960.20685544731
2000.08559730451
2036.41024059721
2071.70753905171
2108.69577726720
2144.41992250320
2181.03443210940
2216.96837107380
2251.90667372611
2286.66839716381
2322.41489119290
2358.46950643441
2391.40063716420
2424.65753657700
2459.42618976630
2494.48558494209
2529.21965226629
2563.01509692149
2594.60837104469
2627.51775173789
2660.49300168059
2693.09737277309
2725.22686840918
2759.89863332039
2794.14198842519
2826.65418212788
2859.63445961369
2896.33528988158
2934.44914964008
2968.12443591239
3001.29846434128
3033.07721928178
3066.49158848039
3097.66988389558
3125.96695369048
3156.29768699698
3190.36668836608
3219.13608589618
3244.87899076259
3265.36719316348
3288.95622852989
3315.52065216748
3341.21036255878
3364.01308532098
3386.37050051457
3406.58126767197
3430.09471846738
3450.49027301098
3466.03670544328
3484.88968900228
3508.11377702968
3529.29648297299
3545.25769059419
3562.08018215129
3580.45484862209
3598.28558497560
3613.43823105929
3626.44034878919
3640.10690779169
3646.25925192149
3651.40429469309
3654.59560971148
3656.32974871469
3656.22280771949
3652.06676335469
3644.93663899829
3638.74867808729
3638.75967576239
3642.10299800309
3652.58372229659
3678.78256948739
3694.82750588549
3695.66557018289
3707.01264086610
3711.87240363359
3662.02822947240
3535.58090831670
3437.25646923600
3421.05118575780
3433.08458126911
3411.81519791340
3404.76859362960
3423.06666794671
3439.27688889750
3457.75197463350
3460.29748027801
3453.00150761251
3445.89575132700
3437.93149935750
3426.29913543901
3410.90326016101
3393.85576123050
3375.94971990450
3360.50036912250
3346.78054537650
3334.50493102500
3322.56616000500
3310.13690974199
3295.17966528300
3281.21243016600
3270.52705787400
3258.15098407200
3245.58542160599
3233.58314417850
3222.49581808800
3209.44090058400
3196.69641720449
3183.54652963349
3170.31449240249
3159.05431387050
3147.74923485899
3136.43854823249
3127.93138727249
3116.38671134400
3106.40618094450
3098.75199097200
3090.07396850850
3080.19047555100
3069.71496998250
3057.99203604150
3047.30213563950
3035.95190068800
3024.32417260650
3013.42133637900
3003.12778908899
2996.87439162450
2989.91425922250
2983.15319201250
2973.99269182950
2963.82471957900
2956.12976611200
2950.11611285100
2939.29457586600
2929.97722584150
2923.17325803000
2918.02148022000
2912.28121729950
2905.97437383300
2898.55055827350
2893.50382725151
2888.09749009350
2882.64301349400
2874.45276368850
2865.18546514799
2857.22320903350
2849.76258548249
2841.71852278050
2831.26089385950
2821.21839339150
2810.64709125299
2798.56344753300
2784.78565950900
2769.82709394150
2754.16426936950
2737.31493850200
2720.66415475350
2704.19978565000
2686.71813372300
2671.41770836650
2657.56937815501
2642.85843561300
2628.81669274800
2616.37231645200
2602.68186976950
2590.63239629400
2579.56609350749
2568.55158528150
2557.76580919050
2545.48143274500
2535.36143119350
2526.07933717650
2516.96835565350
2506.17894098250
2496.77543394300
2488.03339862100
2481.48340570500
2472.59347395150
2461.19640546900
2451.19461150300
2440.34778884550
2432.38562749500
2425.01739727950
2416.60991508450
2406.14075646900
2396.75660385901
2388.26206103850
2381.31707858400
2372.04818246550
2362.55458391700
2353.02265847100
2343.43380221101
2334.17870721750
2324.39545356301
2313.34326010801
2304.10615932301
2293.63436877151
2285.17804713301
2276.52971284501
2266.74746158801
2259.84875994900
2252.55217511701
2245.07238107701
2235.87020842501
2225.26467078001
2215.38439666951
2208.51419440951
2198.93679543001
2190.35841127800
2180.49768291300
2171.19779226151
2162.96751114751
2154.03125097301
2144.88528544200
2136.22711022551
2125.91464299001
2117.47937751001
2109.29783325301
2099.45114404050
2089.68263602201
2081.60613654150
2074.31656938600
2067.25510521300
2061.14435572950
2054.89347867450
2048.71538327701
2041.90231588650
2036.51233624649
2029.72677075450
2020.75738050450
2011.69907457900
2005.04133164250
1997.69298264600
1989.94692769200
1982.85146201700
1974.40673645251
1967.36265812100
1960.13900603250
1951.98398519100
1943.30587288050
1936.41398173350
1928.34586529100
1922.61881412600
1913.78407972050
1904.27899707150
1896.96103446450
1890.06993070800
1882.94760748500
1877.56769875500
1869.31473619050
1861.77668776950
1854.76996880400
1847.69045588850
1840.97383098300
1831.78217557051
1825.30560195750
1819.58391389850
1813.14888781801
1806.39953893650
1798.28361495000
1789.72978160250
1785.50338408650
1779.88579137600
1773.07419081600
1764.64402962900
1757.33090155050
1750.31948997899
1743.52420246050
1734.84354604950
1726.59865652850
1719.05947585650
1713.90250122450
1707.25450892250
1699.28984861850
1691.14828806450
1683.76184930399
1677.92985505499
1670.98752532200
1660.85874044400
1653.75589435199
1648.51119731099
1639.52263031399
1632.48943151549
1625.12317748699
1619.37395154599
1614.10450433849
1608.40849330049
1602.62188452599
1596.11613030599
1588.00350942600
1578.94250406749
1571.24791110599
1563.49434722250
1557.04334938500
1549.22974691999
1542.00552021299
1535.15742813750
1529.16995186700
1522.88534262749
1514.63120042999
1508.12545582050
1502.40812802299
1492.90385578500
1485.42867254999
1478.19604514850
1472.42506260000
1467.26167195349
1460.66910474599
1453.80697061249
1448.15639064299
1442.47699280699
1437.18219466499
1430.74797698399
1423.60362716549
1416.25988092799
1408.84052754599
1404.99906028049
1400.91391990498
1398.98692972499
1395.08061728699
1390.56163256849
1385.07612880499
1381.56797647649
1375.43137295998
1370.30155089599
1365.52390135800
1361.07008812200
1354.67662052551
1346.04502281151
1335.44912047501
1324.48947904050
1316.09894730900
1307.97616321351
1300.53632695050
1291.22157086701
1283.76020998950
1276.76587717050
1271.07443268451
1262.22024439200
1249.83523237800
1239.41791347000
1231.66056975450
1222.72131624450
1214.13297561450
1205.49608519700
1200.64930509750
1195.48884855899
1188.73171785449
1180.54764469499
1174.25650009199
1168.92078424049
1163.32475905649
1156.41765448799
1149.48033271949
1143.75548369999
1137.03686986799
1131.52512563999
1126.18961987849
1126.44372865049
1134.48470034749
1155.90017845649
1189.41773411849
1207.10167410750
1210.01129410649
1227.33584788349
1231.38130605749
1171.22545701299
1034.46042535649
935.945868727487
934.194710243994
947.862844027492
923.791960853991
938.841469912491
972.344511707994
1001.41611552300
1019.82231967649
1022.24093923049
1029.19449916800
1032.94667751299
1029.92094322949
1025.42257281000
1017.86690722499
1008.95459775750
998.079399986995
988.475889725996
982.123128854995
976.190489426997
972.758123042993
968.330838362996
963.283997155499
962.493579571496
960.630139604991
957.229298342998
954.137671789493
950.436545090999
946.862960678989
945.999815971496
943.358643833990
941.001615962989
937.900633252497
933.123760600494
930.009548924994
927.681395689489
922.097779225504
917.805618398998
914.841255203995
912.685796618993
910.727054017500
906.368925154500
904.668274542002
902.852114883004
902.517927849001
901.587354532498
897.635836537495
892.443205162499
889.469608288500
888.010728801004
888.159945894000
886.198740993001
885.589666391994
886.583407290002
886.752011219996
885.164057800497
883.397098090498
883.726045837495
885.529462867489
886.325149687489
887.498806744488
888.731864960995
888.340566524992
888.735354019489
889.038855173987
889.960525144483
890.258698282491
889.594448012984
888.511538437488
886.241337410982
884.472857900990
882.385645934997
878.117752961995
874.815133915490
871.355630161490
864.682438681490
856.020327406497
844.796612228996
835.678545756000
826.785591835502
817.016284581005
807.414833425502
797.006073450006
787.909470129003
781.504453170001
774.455743248007
768.538559962512
763.840780384504
761.580250203007
760.785297133500
754.973446492517
748.085616340506
743.675325036002
739.285913772006
734.023501003509
728.514816714011
721.884841864499
717.762907131004
714.227121039001
712.152710259001
710.456634915006
708.499403397011
704.736611260500
702.033726303007
698.969718762006
697.411582254004
693.316899993008
688.735294597504
686.015977249510
684.379245178510
678.626677018501
674.115165693005
670.773931434009
669.139344069003
667.961080006504
665.787640623010
664.749229674006
660.532069636511
658.897221447012
656.005255713013
651.844527861016
648.081008008516
646.069922377514
641.966663527517
638.089665349511
635.297180359508
632.253874506010
628.756127667013
626.670850093511
625.169341333505
622.808471274011
620.043075601512
616.384077982515
613.647163138516
611.438789140515
608.375297214023
605.318217502516
605.702511448521
602.983669708516
600.656162611511
597.607230145521
595.014169065020
591.925972566010
590.620168675514
589.569395941515
586.484447121020
581.561140398015
576.930916377021
574.784647888519
574.425188592019
573.314510482518
569.087567403023
566.359878639019
565.284889009525
562.957926582025
559.359836512525
554.563459686018
547.976479308023
545.143396213489
542.252072371488
538.666481539485
535.487883313494
531.878082514495
529.135833395996
527.034224006997
523.446044597993
519.040742036994
515.723477482497
513.329427283488
510.324366749990
503.566531349994
499.490480495988
495.004745648992
492.816167045990
491.353349711992
487.763585240995
483.269978276992
482.665249186490
480.388957114494
478.012746238497
475.388492156993
469.937809916995
465.842319256495
464.608916402987
461.000294119494
457.934852378994
452.984071247995
447.755557171495
444.752884288499
441.292795858501
440.477794615506
438.669859756503
436.921574365497
435.107293670995
434.110401646505
431.407484058005
428.293474873501
424.632583986004
421.792999947005
420.254957430008
419.603470351503
416.209444722001
412.321996801500
410.806316577000
408.302562520501
404.942196661497
401.574414178496
398.480046397499
395.870086929001
393.652787011501
392.241169504499
389.833276609494
386.284185786000
384.029232823494
381.555634504492
378.525125813998
373.600660913999
367.551070641002
364.915245964497
361.047795036000
357.876955612503
354.729308336995
351.668730403500
347.572683675000
346.958824162506
345.152705464501
340.977213872999
336.975179737503
334.121306673003
331.056774577508
326.375390512501
319.420045480501
322.076883627002
323.765055564007
325.262901159005
325.081381387501
321.460889913007
317.749333363507
315.312911587498
311.991863848509
308.015040513008
300.605962990516
295.541341911014
292.864783465511
288.178925154016
283.371293761509
278.108237089509
275.236775022011
276.805239465011
277.758833281516
276.615018168011
274.020237702016
270.511481923508
267.984357366009
264.342126046509
260.278905433514
258.530684187015
257.333727255003
256.443489206989
250.989564652493
241.583626379994
232.871202349490
224.716618226990
217.679745758995
213.700351502997
205.690248061495
198.803852779494
193.166465344499
187.815259154997
180.666316187999
172.573546578000
163.154276977502
156.405104213996
151.232236943988
147.853512794989
144.433349063991
139.455809842490
134.508501454498
129.035495363991
123.968847139489
118.358062462496
113.260968173996
108.601742345994
104.246845516496
102.080410846496
99.3114411854949
93.8269818374920
90.2621852219982
89.3078534084889
95.5722101954943
109.614489236988
137.913068237995
165.869185117495
172.070978666996
183.015955595985
201.385980016496
184.429310368496
75.7432714214956
-52.7371630335128
-100.556506045505
-78.4124089965117
-82.8762888960027
-99.0578337240095
-67.0151599260116
-33.3902887275108
-9.03668431201004
-0.139741363505891
3.90877697249562
12.3428270594923
16.7482686374951
13.8345483074991
5.33940114299548
-2.85461039099937
-8.56518714750564
-15.9459136949990
-20.6358148980034
-22.9314879960020
-27.2540955570003
-32.5480613850086
-35.2699860840003
-39.1522103624993
-43.2903159915004
-45.3888690180029
-49.2931572164998
-51.7254464774996
-54.2687504234982
-58.2615613844973
-63.2667504614983
-67.0141414364989
-70.7301713384986
-75.7184559929992
-80.4687687990008
-90.1207991219962
-99.1433924294943
-106.344273667495
-111.982371608994
-117.868077377998
-122.328919689002
-126.217169304002
-130.452700147505
-135.060527680500
-139.458890119500
-141.217177135497
-144.685432925999
-147.211964538004
-151.201152787500
-155.831534823003
-159.095313816000
-161.335926124506
-164.421857898000
-167.153815288506
-169.206279262500
-173.876348193002
-177.009035495996
-179.250314057992
-183.221307395999
-187.279719183000
-192.000812045988
-194.783487621000
-192.456876535494
-193.740132181498
-195.392227642500
-192.917149529998
-189.232119301501
-185.772771103502
-182.618078884501
-184.025493697502
-183.275258731512
-184.157325619504
-186.187694607010
-190.202106396006
-197.891589700510
-203.331030561003
-211.206847156505
-221.824725354005
-233.024794901998
-247.003078517995
-260.826597547501
-270.876247780499
-282.571998980993
-293.605807772996
-303.567204337494
-311.689060237486
-318.852476840993
-325.079257466992
-332.455912738493
-338.578422568493
-344.555414453993
-350.177384188497
-354.300667297497
-359.478666350993
-366.073182031496
-372.254160802495
-375.127352312999
-380.412011824497
-383.593178735997
-386.416237631996
-391.778634689999
-395.647596254996
-398.044602911998
-401.743719898499
-406.876040021998
-411.627406407002
-415.506326238005
-420.086876266503
-424.905832180504
-430.647214389006
-436.828765990500
-440.815780702504
-443.556776432999
-448.231317598498
-454.089703397995
-459.609717349491
-463.925329360496
-465.540540616503
-472.294812308995
-480.360107287497
-488.713523044504
-495.036480860999
-499.611205585501
-504.811857258004
-509.420887891505
-513.397675690500
-517.708466806502
-521.196638682002
-524.722528194005
-528.363681796503
-533.327984230507
-539.954838796504
-545.559937410004
-550.988463201005
-557.635930278007
-562.892975023504
-564.270742785002
-568.923346531505
-573.395992101010
-579.164990416510
-585.388009090513
-590.114228820008
-592.711990105507
-597.966511759507
-604.156643973012
-607.652010090009
-612.612364173012
-614.781651150015
-618.554621029512
-620.976658345502
-625.010721148505
-629.548857135007
-632.907795723011
-638.723093628008
-644.551121646004
-648.655480116006
-653.667816499508
-657.202032504001
-661.010548270504
-664.017586555503
-667.257468928507
-670.475966597989
-672.912407594993
-674.777155483493
-677.947961158496
-682.038684563991
-689.139396230992
-696.771846358488
-705.478072286987
-714.688031231994
-722.418764366994
-729.873125447995
-733.296770638493
-737.223092360993
-740.912298239995
-744.768731512493
-747.662541344991
-749.672307878996
-753.437756312993
-758.455292200491
-761.747828267991
-763.575898241996
-765.098029123496
-767.579221972497
-771.903970439995
-775.414462589995
-776.955575773500
-775.943444401497
-776.681500852506
-780.363878359505
-785.147149369504
-787.848700255512
-791.147609425505
-794.905566363006
-797.778501072011
-802.317251013012
-805.818883399508
-808.497940798505
-812.812338087006
-817.842840774005
-822.298077705009
-826.368390420003
-828.928126086003
-833.514753303001
-836.761816731008
-840.822706909503
-844.881538205998
-848.342269869003
-852.168629651998
-856.476784138498
-856.845082860007
-859.100873276997
-861.550366003499
-866.563073397007
-870.580595188503
-874.287887358003
-878.680830145499
-883.066659598502
-887.406211364998
-893.046521285995
-896.947414966497
-899.462740288502
-902.917671008996
-905.000992734000
-909.044051188490
-913.997429389494
-919.715500101000
-926.000114927991
-929.731983604494
-934.877022218991
-940.603725394491
-942.350308162497
-944.001353843994
-944.848599878989
-943.491227609993
-940.145719807493
-940.071820426492
-941.379362029487
-944.776468606489
-948.336167857489
-952.444284032990
-954.724277935489
-955.049733047990
-956.120079017996
-960.361185292488
-966.799220576990
-974.179249580988
-977.896435871982
-982.811890816483
-989.278775033985
-992.707338565491
-997.058742983991
-1001.23855259549
-1005.33769859849
-1010.67987963450
-1016.51728481849
-1022.09728684049
-1025.48273051699
-1025.65062952799
-1024.82530414949
-1025.81868945899
-1028.73108041100
-1032.00406469850
-1036.81647742650
-1043.91138636300
-1048.23815527050
-1050.45593012550
-1053.49668159750
-1057.18141144200
-1061.78020398749
-1065.79232892450
-1067.21360319600
-1069.69024960800
-1070.78465647049
-1071.27465094200
-1064.49241305209
-1047.81890838300
-1021.10351858609
-997.813816814396
-992.589578605797
-978.068199153297
-962.582366376899
-990.021654078599
-1106.56748364300
-1216.83000893970
-1246.76596078620
-1226.02479286051
-1235.78604352111
-1250.32772486431
-1224.68589501210
-1198.05461783101
-1174.38674494051
-1162.67242196281
-1156.33390197540
-1149.42509085031
-1147.05254564251
-1147.49996059260
-1150.89522950790
-1157.43251354340
-1165.04300104110
-1172.89974043651
-1178.41891264231
-1181.50752248220
-1185.55183186621
-1192.41798332280
-1196.52744809730
-1199.84236040370
-1201.74999897030
-1203.75104717160
-1205.60477829811
-1208.42732184780
-1210.28633638020
-1211.58140391180
-1213.94571582660
-1217.21592576389
-1219.02703941870
-1219.79972715000
-1219.75059152430
-1220.36098070760
-1222.32570627000
-1223.72352466351
-1225.33068898081
-1225.46696578141
-1225.80543811501
-1228.22396058060
-1230.20749438321
-1230.65480898180
-1232.08112442990
-1232.59341897150
-1231.46526128460
-1232.68268201071
-1231.80994615831
-1229.85436956841
-1229.09357078551
-1230.18405334561
-1229.18904377221
-1226.72922302130
-1225.45564662391
-1226.18503900800
-1224.51234882661
-1223.14181030671
-1219.58564070181
-1216.50695068591
-1213.35984910801
-1211.44664320111
-1207.69508922571
-1204.57632968281
-1199.85344001391
-1197.76738457101
-1196.68366784760
-1195.42773923371
-1194.36481650331
-1191.84343223041
-1191.57003174301
-1191.01080448112
-1193.44911809521
-1195.54947132481
-1199.47992368491
-1205.99450316001
-1216.49597755111
-1225.50631224121
-1232.83864357377
-1240.54486872687
-1248.11698091698
-1254.19055667357
-1260.90694234467
-1265.48712283827
-1270.35666051238
-1273.09664526297
-1276.25950430608
-1278.13107176068
-1278.98482312078
-1280.61030098338
-1282.19604859198
-1283.90350826607
-1285.32336867658
-1284.77696419077
-1283.68518568828
-1286.68725038307
-1287.63394569327
-1286.83282773388
-1284.06314868387
-1282.32257212077
-1282.31204777397
-1283.26338611787
-1283.85982751547
-1282.78614464577
-1283.44279792677
-1283.28522492868
-1282.75165908748
-1280.27275358218
-1279.28676424528
-1275.98270737858
-1274.26445368258
-1273.45788536278
-1272.16835482018
-1270.77684292618
-1268.71166265148
-1267.64915741908
-1268.92921196398
-1265.73316871368
-1262.12581564198
-1258.78568931718
-1256.18096636428
-1254.96207760078
-1252.78400966638
-1249.11748394159
-1246.17235783858
-1243.11244142038
-1241.07879359848
-1240.02399147239
-1239.55533660209
-1239.93330259259
-1237.70436185639
-1235.90678818919
-1235.29387984800
-1232.87919496679
-1231.02762749909
-1230.41876696640
-1227.06618096360
-1226.24064160620
-1223.76460284600
-1220.81592197550
-1220.40886880100
-1221.07470145050
-1221.20836070849
-1218.45954962999
-1217.70952631849
-1216.43033010299
-1214.80579554450
-1213.03664642850
-1213.25871356999
-1210.43899331700
-1208.71522967549
-1208.25411475650
-1207.42979758650
-1206.79427131349
-1205.53357955700
-1204.27668350099
-1204.04621834700
-1203.18264988349
-1200.78771350699
-1198.70796264149
-1197.86376179399
-1196.62549155750
-1196.20794282299
-1194.35904689550
-1192.93212768450
-1192.32655197600
-1191.23701540200
-1190.53067829450
-1190.15120367900
-1190.95165820100
-1190.42916660601
-1190.22703298250
-1190.41534313101
-1189.96900826701
-1189.16004107701
-1188.55348532101
-1189.04130200851
-1189.79116708201
-1189.32210182098
-1188.46796729249
-1188.87918181349
-1189.40339391149
-1189.19413533148
-1185.89057155049
-1183.71547692598
-1183.05111915299
-1181.34044814149
-1179.59982880049
-1177.30414966799
-1175.12055645599
-1176.45520257449
-1177.27552803449
-1177.20706216199
-1176.59369569049
-1177.16346334649
-1178.87298847349
-1179.18799451400
-1179.02671333800
-1175.81657255700
-1174.68718369799
-1174.88209603649
-1175.20353664200
-1173.57555660750
-1172.97765700650
-1171.79763332849
-1172.31272796750
-1172.37143560649
-1170.79854809849
-1169.02720555351
-1168.76601272549
-1167.70884766800
-1167.28527337349
-1166.16892708050
-1166.08986931950
-1166.18739756750
-1165.83750094200
-1166.01740659650
-1166.33138006699
-1165.40070930449
-1165.82712249600
-1166.77160555850
-1166.76552635849
-1165.90088755349
-1162.40943223949
-1160.15285420849
-1159.04130154350
-1159.78761140250
-1159.91507367600
-1158.87793131299
-1157.61599644949
-1158.05053990049
-1158.32407439849
-1159.09641060899
-1157.70386323950
-1155.83721694199
-1156.63206496650
-1159.37819672700
-1159.74762434699
-1157.25703175850
-1154.39478392549
-1152.84791472299
-1153.15744099049
-1151.44506802649
-1147.77283518449
-1138.32617185949
-1131.70749292350
-1129.38789504449
-1128.80646314699
-1127.47699798199
-1124.21060895600
-1121.57372913600
-1119.03894880949
-1116.13139730300
-1115.02042551449
-1111.15152697650
-1111.53889605900
-1115.05242378600
-1115.96442402900
-1114.85035363649
-1113.44195452949
-1115.06043626100
-1117.91872367399
-1120.30257601499
-1120.20129073199
-1123.72664674949
-1128.57626485200
-1131.90836667749
-1133.94265585499
-1133.48218863899
-1131.84383306399
-1131.38805085498
-1131.17478424949
-1129.83522336599
-1127.24793819599
-1127.41086768448
-1127.98168042649
-1128.76850904749
-1132.25427181649
-1129.58733817500
-1127.85985594049
-1128.00973883999
-1127.22860969250
-1124.66055490949
-1121.09258280600
-1112.61989895600
-1098.25138389300
-1071.47467986599
-1032.22086528599
-1009.63873192799
-998.384581861488
-971.709432881988
-963.013634792982
-1021.60102967549
-1147.91670235800
-1231.12626104399
-1223.69392432349
-1203.98254386750
-1217.05978276350
-1192.53692827949
-1149.95455077299
-1112.32977695850
-1087.65929446649
-1074.45333990899
-1057.10525985149
-1044.31143996448
-1038.56748057748
-1036.25717560499
-1037.19501669449
-1037.00146927049
-1037.25239651999
-1036.74608498400
-1033.41295416449
-1028.39021676150
-1023.43543855649
-1020.19920660900
-1017.30998322000
-1012.52624598899
-1007.63989387349
-1000.25310332400
-996.143860037990
-991.080974659504
-987.839654064001
-982.225833363000
-977.352748430996
-972.815950538996
-968.144435116503
-964.287076553996
-959.974529845495
-954.576771958498
-948.884317476004
-943.699216933497
-936.318967334999
-931.688646538503
-924.600666549006
-918.278510203503
-914.024691472501
-910.716222537003
-905.724240745505
-902.707679795998
-896.836341500997
-890.867748522003
-885.368657299499
-879.639878032498
-873.913814514002
-868.064683625998
-861.078146040001
-856.424609404498
-849.535249171502
-842.895098590501
-838.035402649508
-832.022144760005
-826.826259895503
-819.946357288503
-812.524515904503
-803.987947038000
-795.695800229998
-788.351485185005
-783.109093993511
-776.740434897010
-770.196385963505
-764.180044891504
-759.267033249007
-753.410531331003
-747.695228667004
-743.537266627502
-740.991179436003
-738.332987550006
-736.552937668503
-734.722693039510
-735.533256019508
-737.760831796504
-738.668518936509
-741.468399765006
-742.310959452008
-743.619856135503
-745.166630127005
-745.646217097503
-743.790076194009
-741.396092821515
-740.924908110006
-741.752961529510
-741.157602900012
-740.032222513511
-738.737102593514
-737.082522483010
-734.635317949505
-731.798366964005
-727.214990554503
-724.048012987503
-720.593256597003
-717.949337867998
-714.885321610505
-709.063752519009
-704.817580170005
-700.352228299498
-696.554339734506
-694.311227355005
-692.819203711504
-691.158299221508
-688.490656861502
-685.926372970502
-683.907184794005
-680.843563908009
-678.371107227003
-675.965395245012
-671.395325578504
-669.124187193007
-667.031129584508
-664.029770658011
-660.810548848505
-659.378975026510
-657.594205719015
-656.497967274008
-652.326302673009
-649.917552879009
-648.586411464015
-645.936049677015
-643.431501748510
-641.405602537512
-637.170302793013
-633.299476344011
-631.255904317512
-629.441257306507
-626.602696450509
-623.502623832004
-624.863439565514
-622.820205247508
-620.222199676509
-615.968743909511
-613.631342244009
-612.294763968002
-611.834507289008
-608.527820542511
-604.738034076008
-600.874262181005
-599.898125260508
-600.711572508011
-598.345688226009
-593.533471954512
-590.787206764508
-589.889206785007
-588.622877241009
-587.255413947010
-584.408063953506
-581.513911272004
-580.079244210001
-578.825827155006
-576.484527426004
-574.246515763503
-573.533814493507
-573.330328248005
-572.182574841010
-570.106003710011
-568.305058590016
-566.888402275516
-564.091959771009
-563.229948879003
-562.238023695007
-560.348933974510
-560.129339637011
-559.056133314010
-558.336260376011
-557.114292006014
-555.201824632506
-552.705604761011
-549.859523130010
-547.089896602505
-545.319895504510
-543.499224721511
-541.752877299012
-541.436974800017
-540.941359974009
-541.046012061004
-538.423379248501
-537.638957052004
-538.306661961000
-538.085668290001
-537.710734971002
-535.636159695008
-530.792297388005
-528.588229788002
-527.491490032506
-524.507086263002
-519.222800890500
-515.011774140003
-513.678084825002
-514.764483012001
-515.446901373005
-514.592036446500
-512.988377458509
-512.271835117503
-510.293878444509
-509.792707408518
-508.591411671016
-506.868790338012
-504.309686283013
-502.533137976016
-502.217103612020
-500.096753524516
-499.281700206013
-498.747048199513
-497.974851229514
-496.786917663012
-494.546302225519
-493.846422703518
-492.315154024516
-489.359610363012
-488.225221585510
-485.071553443511
-482.656882240512
-482.576858289018
-482.610715633513
-481.358750211015
-479.914933729508
-478.903047760510
-478.169879254516
-476.821649700012
-474.789011740511
-472.035096592512
-471.069048685509
-471.845996818505
-469.831979985009
-468.305072238009
-465.703764231012
-464.747600164514
-464.166794737514
-463.174668627009
-459.906033202507
-456.242613636005
-451.043604912007
-444.744394641004
-441.701004975008
-439.686267577499
-437.711189137512
-434.366834371505
-433.135626064503
-432.125329627508
-427.493745609007
-422.667920199005
-419.822417656505
-416.440706653500
-416.782856098502
-418.027263198001
-416.612805676501
-417.129965679009
-418.045644955502
-418.694042593503
-419.667949654506
-419.733678769506
-418.985842405509
-421.497754882506
-424.720629352509
-426.820163991006
-425.810229624009
-423.478605433504
-420.656328117006
-419.540909349011
-418.507467475503
-417.298722259506
-416.455813242008
-418.034347701010
-415.724883982510
-414.612579687007
-413.442166956005
-409.104444984007
-407.178759597005
-405.974684190009
-403.175139282010
-398.457626218507
-389.716751085009
-374.294920975508
-350.476130827510
-308.427547758007
-274.678052512500
-261.218269004996
-237.358497002995
-218.324875156504
-247.114130527496
-367.683814442986
-490.452775012487
-516.828913175994
-487.486771774489
-493.950495031495
-487.453715006994
-444.113504428493
-406.442897915986
-377.350534750491
-365.658486274489
-351.285051976492
-335.425065538484
-329.923023445484
-328.506941302489
-328.938073025980
-330.596770900484
-333.833850136487
-335.422401418480
-333.847100110483
-332.394373354487
-329.253410293493
-327.048398405990
-325.121123710493
-324.055829957988
-323.142954488991
-319.452791359490
-315.991533130498
-314.885328373492
-315.346433011489
-314.664031189493
-311.910277408491
-309.877509371998
-308.445047584493
-307.247729923492
-304.674155584495
-302.609555783996
-297.788647373996
-297.091834271989
-295.187489782491
-292.217539087489
-288.662352524989
-285.148596157496
-281.791517759992
-281.892799019999
-281.424216518994
-280.014085063496
-276.288649387498
-273.355955024997
-270.989589100498
-266.120875828497
-262.245577814996
-258.531374355000
-254.706845037003
-250.839563074498
-247.552219359008
-243.811858799998
-241.622661772499
-237.846011295000
-234.256041427507
-228.139596270003
-221.925537934505
-217.246841010003
-213.000730346999
-207.282248172003
-202.912122275999
-198.752286859506
-196.264904848505
-193.868601099000
-192.383589991505
-189.962648496004
-186.534899175005
-185.632041199504
-184.141281448510
-184.716372204006
-186.739816044001
-188.252831701502
-191.026189114500
-198.113936887501
-202.937542048496
-208.129561033504
-213.709222441492
-219.278311181999
-225.038609759999
-230.523051675003
-235.131434828996
-237.739631552995
-238.476808531495
-241.680035339992
-243.112500703495
-242.662649066988
-243.299388721493
-245.395668305990
-246.467099591999
-243.553999474490
-241.255352038501
-238.513264242296
-232.930013379597
-224.193232497892
-214.009370470194
-205.124868917401
-192.953688516905
-176.978779630505
-160.048557005704
-142.740418365003
-129.387517787398
-111.737904045898
-93.0840942105024
-73.2168159336070
-54.7247058450084
-34.5894038202023
-8.29935338670657
16.7031730424915
40.0894440683951
63.0938642714827
85.6798232342881
112.234254946787
139.808135421288
161.547681825294
183.534701465089
210.096611398185
233.843692196991
256.184574335692
273.537006876893
302.655298992586
331.622568805786
356.171823154486
382.136869766682
409.880922291883
437.819321477082
466.278698938786
492.958277285987
521.901863921685
549.700722222886
577.635072929086
606.504428733277
636.441934172981
662.406495119682
689.823152999386
716.330946788083
744.012001144789
772.854538289979
799.119008299187
825.500089209883
852.822975653086
878.753209458282
905.043874337989
931.375720880687
958.453025970886
983.553119760583
1010.33635897228
1037.11523859299
1063.04947438918
1088.19657894538
1113.59986054258
1139.63346198029
1166.42017415849
1190.71576137118
1215.34200297688
1240.69175431258
1267.23776123728
1292.76629871598
1316.45723327519
1340.50626355738
1366.10088015208
1388.53310025928
1413.77279863049
1438.47598748668
1462.03203644338
1487.32711699708
1512.27267573478
1536.56374601248
1563.87929048068
1588.19733743189
1611.09688240558
1634.93352019079
1657.26883829698
1681.56766022519
1702.35281384489
1725.67638570058
1751.10469996829
1774.21596649199
1797.18338595719
1820.03976749339
1843.36508309609
1869.16234647029
1891.54194819599
1913.98306136819
1934.82906889740
1954.19691291209
1974.81489546029
1998.31768280249
2020.46367048268
2040.48694456289
2056.69242919109
2074.37185452479
2094.16320082228
2110.25067204178
2124.36762399778
2135.46576905278
2147.70834572368
2160.40829386740
2167.60697313869
2170.15300789709
2172.71135719259
2178.41954598569
2183.35367663490
2184.38251838670
2184.07297084200
2184.74008897409
2183.90854099799
2182.01313476519
2177.02013314319
2173.03713892799
2171.84953962809
2169.84939552899
2166.83613706019
2166.13364352689
2164.22356027259
2162.66611715099
2157.11120872559
2153.54786874899
2150.66350559099
2153.59070341799
2147.27363527349
2140.37361498448
2135.67425280300
2127.65508017849
2113.69274485199
2100.48221033249
2090.22256128749
2079.46418339099
2067.39424066799
2052.98669155349
2039.06301390450
2027.46706439399
2016.57837839849
2001.37109599649
1986.30346913400
1970.32332194399
1957.49263036799
1946.69033025149
1935.66821833199
1925.86412665499
1914.87961123500
1904.03343426899
1897.66055348100
1887.83900019599
1876.94564439150
1866.36827311050
1856.70217636799
1848.26159091749
1836.33560968500
1826.03626972200
1817.22468522300
1812.21492557099
1814.79636956850
1824.39589214249
1847.22481218899
1875.82644288599
1881.59499934199
1889.57568370199
1903.42647755399
1882.41993426600
1770.55603508999
1624.83171448950
1556.30580139649
1568.25752669999
1564.56979636799
1540.48442458349
1567.34930047800
1599.23490205199
1619.84463405300
1624.55400791700
1623.75330732150
1629.87441692399
1630.94375267400
1622.56373125350
1610.84020749600
1594.65299403749
1580.24846530200
1566.74933283149
1556.49392313450
1547.12954446349
1536.81386776800
1528.19946659099
1521.34716086999
1513.04537964749
1503.80492971499
1493.94734241899
1484.93883586949
1476.11283986699
1466.24312076749
1456.73331355199
1448.58908954849
1443.96024899249
1438.03539362249
1430.31923224050
1423.67061078599
1417.20678360150
1410.14739931949
1403.54903675699
1396.35482811150
1388.44310512349
1382.29815656399
1377.30683253299
1372.44226853849
1366.39066564799
1361.60228498099
1355.79859343099
1350.71162615099
1347.05002229849
1341.95482999499
1334.56796881949
1329.84304404899
1325.84995684199
1320.74038991249
1317.37778413649
1314.05473562549
1310.11279482899
1309.02908199449
1306.66863189149
1303.11471726749
1298.04833880749
1294.31209288348
1292.23126385398
1288.08523716148
1285.03016604448
1282.13523424199
1278.81532255348
1275.48826489948
1272.44247439648
1267.62623333698
1264.41355963048
1259.00635752748
1253.79946372348
1247.01226288198
1238.97931863449
1229.86331014948
1219.59786552599
1208.40549756448
1195.72019519699
1181.28256856999
1166.63648818649
1151.99320870498
1137.56531460899
1125.75583297499
1114.47039581398
1102.34502777298
1091.25168729749
1080.57223976699
1071.44880750599
1061.91764955899
1050.60351946799
1042.04683493099
1034.95565620949
1027.90112612399
1019.91401144548
1011.69282611098
1004.71177656748
998.005652809481
991.530469589989
985.320977806485
981.587580836984
976.590820615489
970.616256163488
962.818773188996
956.665223902484
948.397064678993
940.994496817486
934.867250798989
928.263336943486
920.893865185488
912.821573986497
902.642004097494
895.804336732494
888.140028020993
880.195298105988
873.375496660494
866.831771354991
862.789995119989
855.280048247989
846.063826385987
836.334134059485
827.296036333486
817.349477039990
806.265988891486
794.335457645986
784.419457730990
774.876637777490
765.881416514993
758.555861389490
750.131376208485
740.852899538992
734.285905648489
727.516606486488
719.452479742491
710.468133095988
701.797005830988
693.782950909490
686.817100483491
676.433472412487
666.337579358986
655.182550871990
644.460298621487
635.861749405482
626.847985018483
619.719365576984
610.035164440482
599.697497579982
591.127297327486
581.788006084482
572.652765647985
563.731188529489
553.841814839989
544.705073377490
536.544275284490
527.478240728988
517.206744395990
506.976043517981
498.671578507490
490.445639998487
481.876197857979
472.643128342488
464.771057830487
457.015604701483
449.363564128482
441.131986714483
432.922482607482
424.952939051982
417.759628429480
409.904355059989
400.296392902479
390.687639554983
382.257955987479
374.916960811477
367.948703960976
358.981787185472
350.493564274471
343.758196658982
337.749470008481
332.419102958982
323.949569341483
315.825467713483
307.120267202976
299.744109889482
292.895987864984
284.776364729983
274.065859639484
265.296314819987
258.099699079477
250.576734002980
242.621716382981
233.522009317478
226.761922154981
219.282873934482
212.162545001980
204.320892839984
195.684223240485
187.410136126484
182.079811541993
174.902096749487
167.763345829491
157.152411106490
145.968419701492
137.640613691990
132.207126424493
126.166276118989
121.854334648493
116.341260371993
112.857716287495
109.988523638991
104.045609468993
97.5395128469918
92.7036522869912
87.6225067349933
84.6267572114903
82.2242381504948
81.2287939589915
81.3275986154986
80.2341639779934
79.7182953584979
75.9060965354911
71.8586255204937
68.3080765829964
66.5851389974960
67.6081447619963
66.8575517489917
61.8266583839904
55.2269711369954
49.1652651524946
46.6071147719940
42.3482505284901
37.1283606464931
30.4220466899969
23.6221861379945
17.9966817509994
13.5235411290032
7.30420126499848
-3.35403790350028
-10.3495568369963
-15.5814602909923
-18.9569870489886
-23.5640397074840
-27.7457627024924
-29.6471194439855
-30.8783214929863
-31.0720166504852
-33.4079179604869
-37.6628041274817
-42.4262645444833
-46.7326048814830
-51.5894044859888
-56.5574795999837
-61.4019064679869
-65.2848957869828
-68.0207411834872
-68.7259348649914
-64.4915052059878
-51.1247790524849
-20.6499809984907
10.2205933140085
17.9321935080097
30.7862734650153
48.6270963735078
32.1418327020128
-78.3564863909869
-222.359479052993
-284.083380182996
-263.203852838989
-261.126869573985
-276.810386669986
-246.760283092493
-213.999550952989
-188.914371139497
-178.903240013991
-173.853537335992
-165.449453681993
-162.815013587993
-165.574888140001
-171.040683450001
-181.350157126499
-190.946360054999
-201.581027572496
-208.076608966499
-213.270487471498
-218.681134156497
-224.851532884493
-230.095639662002
-236.264200326003
-241.832567384998
-247.062760617006
-252.445702689000
-257.563389150002
-260.397651206999
-262.196909572502
-263.977259838002
-266.928977403000
-272.150350207496
-277.235010520502
-283.439791371004
-289.517474029497
-296.106665940002
-302.753072062500
-309.264187153498
-312.358532360991
-316.343257315495
-320.885744623498
-326.362602066003
-331.998816796493
-335.536464866993
-338.563818407993
-343.193271577497
-348.870104303993
-351.187200994491
-354.710115944998
-356.755122841494
-360.138574462495
-364.007800427991
-368.031316712995
-370.592629841996
-373.416605534994
-377.823945074988
-381.923528243993
-384.550059790494
-385.120157332491
-386.070648074992
-387.375190754994
-389.441074339493
-389.372343172496
-391.691131757993
-394.204471058993
-397.024936684491
-399.805453025991
-402.213760736990
-404.071625942994
-410.622068093993
-415.611905179487
-422.299539005988
-428.439144574484
-435.569712712488
-442.954950830992
-454.530938662490
-466.352156504985
-479.411420636990
-493.106566630489
-508.351992212993
-525.605654695493
-539.661258136484
-551.045164033489
-559.463888278491
-569.818919747988
-578.786053094987
-584.161608938999
-587.255445460489
-591.315423088492
-592.806631403995
-596.125140406490
-600.774723773991
-605.350935443987
-609.028432381485
-611.531108944490
-615.654658241989
-621.161661587992
-624.897097547993
-628.046950991991
-631.607783164489
-634.950833807990
-638.820324620994
-643.339085392496
-647.180570761495
-650.296824109495
-654.286046554487
-659.637042877490
-663.821607004496
-668.090581940987
-672.079012301991
-675.193384450487
-679.500968788492
-682.347800261990
-684.201307664991
-687.637202890492
-691.295811172491
-695.836556297993
-699.854556826489
-701.170013011497
-703.220955620991
-707.179377530991
-711.316576420490
-714.768121562998
-715.112252111991
-717.513514655995
-720.623355118492
-723.896885416481
-726.418945240488
-728.553369346493
-731.777275492486
-738.295386580494
-743.604343000492
-746.550959401491
-748.248649979998
-749.492980642495
-750.237785675992
-750.130414711499
-752.205706751996
-754.005151963502
-756.388946864998
-758.315081263501
-760.754868725997
-762.066383488498
-767.243367405004
-769.205142007499
-771.563741083503
-775.894385257501
-778.332432995996
-780.038965905003
-781.353322246503
-782.125000026006
-785.014964764501
-785.783691450000
-787.672930692001
-790.235834693991
-792.442535570999
-797.839181098500
-800.107129915497
-801.715158775507
-803.141105761504
-804.930704680504
-807.290379238504
-809.138142915006
-808.439490631510
-810.269803204505
-813.425475471006
-817.508618874010
-819.036547569001
-819.102941149507
-819.666617983508
-822.127870162505
-825.098873319012
-825.336391462508
-823.613859082501
-824.199358456499
-826.419979360497
-829.185340390499
-832.093036054495
-831.377763640499
-832.402159351501
-833.338596414007
-834.994221163503
-835.346658090009
-836.197286350505
-836.483987010002
-837.030980239497
-839.143781390998
-843.608048392502
-846.695021229001
-847.883771464498
-850.456741012506
-852.736008763497
-853.568823850501
-853.585526899500
-853.618059112498
-855.181990975498
-856.289720672998
-855.141313081511
-856.476327975006
-856.847952823497
-857.443453375503
-858.952972822503
-859.143654976504
-859.131235528505
-862.358128081509
-864.297288060005
-864.556610640004
-862.941680994007
-859.202780560503
-858.336377670003
-857.438204701502
-859.603596520508
-860.785806699005
-860.395367173500
-862.046520582004
-864.382508833505
-866.220629826004
-868.873325400011
-868.984007293506
-869.001681226511
-869.539793907006
-870.951488521507
-869.877193530005
-869.237310571509
-867.360259455003
-867.896317276511
-867.468150280512
-866.196593071509
-864.764222919008
-863.672605783508
-863.641445637000
-864.736954354501
-863.684586054002
-857.645724898501
-851.778704623501
-849.239864419498
-849.524927941500
-846.940327229995
-844.732406937003
-841.066044099003
-839.226282616499
-838.540216065001
-837.438081466496
-835.541781189004
-834.781426366493
-838.919446394999
-839.779823278495
-840.686593844990
-840.618383432999
-841.101262111504
-843.689149167003
-848.156709664507
-849.122334709502
-849.785706177005
-853.956034918507
-858.077423864997
-861.225413766002
-862.371452257499
-862.386374458505
-862.267129162503
-862.788579918008
-863.697295381504
-864.950045736003
-864.544110955496
-863.570110024501
-862.407309256500
-862.618324769997
-862.754461525499
-859.933407871498
-859.439526287995
-859.662496145997
-859.132273909498
-857.723391148504
-852.719216314499
-841.952614959020
-823.911445980015
-790.843695243020
-758.676084498022
-748.863805569014
-733.691206120517
-712.173684840022
-723.445425697515
-827.313595834514
-951.164890467013
-996.446553463517
-974.226362710513
-969.293778502517
-984.855949402510
-952.215574471511
-914.157408454514
-880.017103120516
-860.771843313010
-845.908086222014
-826.148531235009
-813.249714400508
-805.992058798509
-802.032904032010
-800.840568186011
-796.723870728010
-793.643317035010
-791.248703616009
-787.175091147006
-781.417390756507
-774.632477214016
-769.878181191009
-765.569368497008
-759.873781215016
-755.282856316511
-749.911228708510
-745.202516851505
-740.662041267002
-732.473699481014
-723.931611058504
-716.664661209008
-714.267939961506
-714.154469235013
-714.813786859511
-713.666379654012
-711.586483290015
-711.555974646013
-710.274868399518
-709.730609245511
-709.991837386511
-709.023212077509
-708.147431350506
-710.304062193009
-711.567434385011
-709.981710825008
-708.800754928509
-708.019158442508
-707.600211492010
-707.105014387515
-703.626375681011
-697.697590063512
-694.198050754509
-694.365160810508
-695.531085214510
-695.319022603511
-696.415172542509
-695.120172418505
-694.148587746005
-693.565712932506
-692.463789541504
-689.023142259013
-686.746979817008
-682.672672710005
-682.428576961511
-681.851375025010
-679.617180966008
-678.891779085006
-680.766119370011
-681.835317220506
-682.651960741512
-683.598920407514
-685.578395316012
-688.564879870512
-694.429181715021
-700.545029904015
-704.023615641017
-712.407556804517
-720.682142323514
-729.612510591020
-738.647934363020
-746.218706313017
-754.072131114017
-763.717271379015
-771.692203966511
-777.600944539514
-783.221682565512
-786.835340527514
-791.973108463513
-797.915174004012
-801.317621113511
-802.875512218510
-805.138663384523
-808.476827871029
-814.313058339016
-817.108512526520
-818.613104022015
-819.654335988011
-822.894872322020
-826.933466140519
-829.041531997513
-829.583730481520
-831.090659116517
-832.596786951017
-835.653171354014
-837.382916302515
-837.467399749514
-840.220259977510
-846.444370896010
-853.129112856002
-857.574667543508
-861.421190602507
-863.145375988504
-865.280336271002
-869.035958080505
-872.991396936010
-878.563573999503
-888.689019117006
-896.215795315511
-903.221197642508
-911.134955374513
-917.899617805508
-924.774602965514
-931.956348580510
-935.431526836508
-941.487769587006
-947.400968538010
-955.599460353014
-963.363920532011
-971.041055908510
-978.584820565513
-981.258128874009
-985.230759126011
-989.075708298007
-990.999133876507
-992.974829623510
-994.859798674510
-994.258032076499
-996.879788322009
-997.950570564000
-999.139795960504
-1001.20540106400
-1004.57921625900
-1007.55818808450
-1011.80313431250
-1012.24994232600
-1011.95644771350
-1013.27246019000
-1016.14689078449
-1018.56372747900
-1019.33490618300
-1021.94782389750
-1026.50552194500
-1028.26921430850
-1030.13853791250
-1031.19236008050
-1032.32625045301
-1032.76282931850
-1033.98531106800
-1036.95539742750
-1037.11615360201
-1035.13405703850
-1033.97296895100
-1035.27140091750
-1034.84709734250
-1031.98647368400
-1030.33188284550
-1030.15975297950
-1029.68415637800
-1028.05656501000
-1026.32933935350
-1023.32200090801
-1021.20339322650
-1020.08330442600
-1017.77588886150
-1015.25118369151
-1014.09223874550
-1012.59104623800
-1012.76718368250
-1013.07267979800
-1013.52009170850
-1012.47693808950
-1011.42882545250
-1010.06362666050
-1008.69187909500
-1007.36268570599
-1003.34931028650
-999.425305364999
-998.325734535001
-998.025755963998
-995.303469418503
-993.050833480496
